Date,Low,Open,Volume,High,Close,Adjusted Close
04-10-1989,2.4375,2.46875,20636000.0,2.546875,2.5,1.835958480834961
05-10-1989,2.5,2.515625,6453600.0,2.625,2.578125,1.8933334350585938
06-10-1989,2.546875,2.59375,2755200.0,2.625,2.546875,1.870383381843567
09-10-1989,2.5,2.546875,1084000.0,2.546875,2.546875,1.870383381843567
10-10-1989,2.5,2.5625,1493600.0,2.5625,2.53125,1.858907699584961
11-10-1989,2.46875,2.5,1260000.0,2.515625,2.515625,1.84743332862854
12-10-1989,2.515625,2.515625,602400.0,2.546875,2.53125,1.858907699584961
13-10-1989,2.46875,2.53125,3970400.0,2.53125,2.484375,1.8244847059249878
16-10-1989,2.375,2.375,3924800.0,2.46875,2.46875,1.8130104541778564
17-10-1989,2.4375,2.4375,1843200.0,2.5,2.5,1.835958480834961
18-10-1989,2.484375,2.5,1128000.0,2.5625,2.546875,1.870383381843567
19-10-1989,2.53125,2.53125,1040000.0,2.546875,2.546875,1.870383381843567
20-10-1989,2.515625,2.53125,237600.0,2.53125,2.53125,1.858907699584961
23-10-1989,2.546875,2.546875,87200.0,2.5625,2.546875,1.870383381843567
24-10-1989,2.53125,2.546875,689600.0,2.5625,2.5625,1.8818581104278564
25-10-1989,2.515625,2.546875,608000.0,2.578125,2.546875,1.870383381843567
26-10-1989,2.546875,2.546875,228800.0,2.5625,2.546875,1.870383381843567
27-10-1989,2.5,2.546875,456000.0,2.546875,2.515625,1.84743332862854
30-10-1989,2.5,2.515625,250400.0,2.515625,2.5,1.835958480834961
31-10-1989,2.5,2.5,424800.0,2.515625,2.5,1.835958480834961
01-11-1989,2.515625,2.515625,715200.0,2.5625,2.5625,1.8818581104278564
02-11-1989,2.59375,2.59375,130400.0,2.640625,2.640625,1.9392311573028564
03-11-1989,2.625,2.625,1118400.0,2.75,2.734375,2.0080809593200684
06-11-1989,2.578125,2.71875,264800.0,2.71875,2.578125,1.8933334350585938
07-11-1989,2.5,2.546875,727200.0,2.6875,2.6875,1.9736560583114624
08-11-1989,2.671875,2.6875,236800.0,2.71875,2.71875,1.996605396270752
09-11-1989,2.6875,2.71875,60800.0,2.71875,2.6875,1.9736560583114624
10-11-1989,2.546875,2.6875,210400.0,2.6875,2.5625,1.8818581104278564
13-11-1989,2.515625,2.5625,92800.0,2.5625,2.546875,1.870383381843567
14-11-1989,2.484375,2.578125,428000.0,2.578125,2.53125,1.858907699584961
15-11-1989,2.53125,2.546875,176000.0,2.578125,2.5625,1.8818581104278564
16-11-1989,2.546875,2.546875,301600.0,2.59375,2.59375,1.9048062562942505
17-11-1989,2.59375,2.59375,249600.0,2.640625,2.640625,1.9392311573028564
20-11-1989,2.609375,2.65625,43200.0,2.65625,2.609375,1.9162830114364624
21-11-1989,2.59375,2.59375,108800.0,2.671875,2.671875,1.962180733680725
22-11-1989,2.6875,2.6875,255200.0,2.75,2.75,2.0195536613464355
24-11-1989,2.78125,2.78125,572000.0,2.953125,2.921875,2.1457765102386475
27-11-1989,2.859375,2.90625,253600.0,2.9375,2.875,2.1113531589508057
28-11-1989,2.828125,2.875,560000.0,2.875,2.828125,2.0769283771514893
29-11-1989,2.78125,2.8125,60800.0,2.8125,2.796875,2.05397891998291
30-11-1989,2.8125,2.8125,712800.0,2.90625,2.890625,2.1228277683258057
01-12-1989,2.890625,2.890625,356800.0,2.953125,2.90625,2.1343019008636475
04-12-1989,2.875,2.9375,172000.0,2.984375,2.984375,2.191676139831543
05-12-1989,2.90625,2.953125,93600.0,2.984375,2.90625,2.1343019008636475
06-12-1989,2.90625,2.90625,668800.0,3.0,2.984375,2.191676139831543
07-12-1989,2.921875,2.984375,215200.0,2.984375,2.953125,2.1687264442443848
08-12-1989,2.921875,2.921875,122400.0,2.953125,2.953125,2.1687264442443848
11-12-1989,2.9375,2.96875,306400.0,3.03125,3.0,2.2031514644622803
12-12-1989,2.984375,3.015625,1119200.0,3.03125,3.015625,2.2146248817443848
13-12-1989,2.984375,3.0,400000.0,3.15625,3.15625,2.3178982734680176
14-12-1989,3.109375,3.125,391200.0,3.140625,3.125,2.2949488162994385
15-12-1989,3.09375,3.140625,155200.0,3.140625,3.109375,2.283472776412964
18-12-1989,3.03125,3.078125,224000.0,3.125,3.03125,2.226100444793701
19-12-1989,3.03125,3.03125,215200.0,3.0625,3.0625,2.2490503787994385
20-12-1989,3.046875,3.0625,166400.0,3.109375,3.078125,2.260523796081543
21-12-1989,3.0625,3.109375,174400.0,3.125,3.109375,2.283472776412964
22-12-1989,3.109375,3.125,173600.0,3.125,3.125,2.2949488162994385
26-12-1989,3.078125,3.109375,97600.0,3.109375,3.078125,2.260523796081543
27-12-1989,3.03125,3.0625,144000.0,3.0625,3.03125,2.226100444793701
28-12-1989,3.03125,3.046875,11200.0,3.046875,3.03125,2.226100444793701
29-12-1989,3.015625,3.03125,219200.0,3.15625,3.15625,2.3178982734680176
02-01-1990,3.03125,3.125,194400.0,3.125,3.046875,2.237574577331543
03-01-1990,3.03125,3.0625,361600.0,3.0625,3.03125,2.226100444793701
04-01-1990,2.953125,3.03125,166400.0,3.0625,2.953125,2.1687264442443848
05-01-1990,2.859375,2.9375,100800.0,2.9375,2.90625,2.1343019008636475
08-01-1990,2.84375,2.875,880800.0,2.890625,2.859375,2.099877119064331
09-01-1990,2.8125,2.828125,282400.0,2.84375,2.8125,2.0654540061950684
10-01-1990,2.6875,2.765625,784000.0,2.765625,2.703125,1.9895519018173218
11-01-1990,2.703125,2.71875,347200.0,2.765625,2.75,2.0240516662597656
12-01-1990,2.6875,2.71875,159200.0,2.734375,2.71875,2.001051664352417
15-01-1990,2.71875,2.734375,25600.0,2.734375,2.71875,2.001051664352417
16-01-1990,2.625,2.6875,172800.0,2.703125,2.703125,1.9895519018173218
17-01-1990,2.71875,2.71875,216000.0,2.8125,2.71875,2.001051664352417
18-01-1990,2.6875,2.6875,157600.0,2.71875,2.703125,1.9895519018173218
19-01-1990,2.734375,2.734375,8800.0,2.75,2.75,2.0240516662597656
22-01-1990,2.71875,2.734375,56800.0,2.75,2.734375,2.012552499771118
23-01-1990,2.734375,2.765625,101600.0,2.765625,2.75,2.0240516662597656
24-01-1990,2.6875,2.734375,26400.0,2.734375,2.6875,1.9780514240264893
25-01-1990,2.671875,2.6875,249600.0,2.71875,2.71875,2.001051664352417
26-01-1990,2.671875,2.703125,45600.0,2.71875,2.671875,1.9665501117706299
29-01-1990,2.625,2.6875,444000.0,2.6875,2.640625,1.9435502290725708
30-01-1990,2.578125,2.625,548000.0,2.65625,2.65625,1.9550508260726929
31-01-1990,2.6875,2.6875,757600.0,2.859375,2.859375,2.1045541763305664
01-02-1990,2.84375,2.875,149600.0,2.875,2.859375,2.1045541763305664
02-02-1990,2.875,2.875,720000.0,2.90625,2.875,2.116055488586426
05-02-1990,2.875,2.90625,163200.0,2.90625,2.875,2.116055488586426
06-02-1990,2.84375,2.875,99200.0,2.90625,2.890625,2.1275548934936523
07-02-1990,2.90625,2.90625,32800.0,2.9375,2.9375,2.1620566844940186
08-02-1990,2.96875,2.96875,346400.0,3.125,3.046875,2.242558479309082
09-02-1990,2.96875,3.078125,179200.0,3.125,3.0,2.2080581188201904
12-02-1990,2.90625,3.0,28000.0,3.0,2.90625,2.1390559673309326
13-02-1990,2.9375,2.9375,26400.0,2.953125,2.953125,2.173556327819824
14-02-1990,2.9375,2.953125,32800.0,2.96875,2.9375,2.1620566844940186
15-02-1990,2.953125,2.953125,152000.0,2.96875,2.953125,2.173556327819824
16-02-1990,2.96875,2.96875,32000.0,2.96875,2.96875,2.185056447982788
20-02-1990,2.953125,2.984375,23200.0,2.984375,2.953125,2.173556327819824
21-02-1990,2.90625,2.953125,553600.0,2.953125,2.90625,2.1390559673309326
22-02-1990,2.84375,2.90625,148000.0,2.90625,2.84375,2.09305477142334
23-02-1990,2.6875,2.78125,575200.0,2.78125,2.71875,2.001051664352417
26-02-1990,2.734375,2.734375,477600.0,2.75,2.75,2.0240516662597656
27-02-1990,2.765625,2.765625,357600.0,2.84375,2.84375,2.09305477142334
28-02-1990,2.796875,2.8125,145600.0,2.828125,2.796875,2.05855393409729
01-03-1990,2.75,2.796875,225600.0,2.796875,2.75,2.0240516662597656
02-03-1990,2.6875,2.75,931200.0,2.78125,2.703125,1.9895519018173218
05-03-1990,2.65625,2.671875,146400.0,2.703125,2.671875,1.9665501117706299
06-03-1990,2.625,2.671875,258400.0,2.734375,2.734375,2.012552499771118
07-03-1990,2.703125,2.734375,174400.0,2.75,2.75,2.0240516662597656
08-03-1990,2.734375,2.75,146400.0,2.796875,2.78125,2.047053575515747
09-03-1990,2.734375,2.75,194400.0,2.78125,2.734375,2.012552499771118
12-03-1990,2.625,2.703125,1072800.0,2.71875,2.6875,1.9780514240264893
13-03-1990,2.671875,2.671875,662400.0,2.6875,2.6875,1.9780514240264893
14-03-1990,2.671875,2.671875,298400.0,2.765625,2.765625,2.035553455352783
15-03-1990,2.71875,2.78125,192000.0,2.796875,2.71875,2.001051664352417
16-03-1990,2.734375,2.75,271200.0,2.78125,2.78125,2.047053575515747
19-03-1990,2.75,2.75,476000.0,2.765625,2.765625,2.035553455352783
20-03-1990,2.75,2.75,898400.0,2.90625,2.796875,2.05855393409729
21-03-1990,2.796875,2.796875,102400.0,2.8125,2.796875,2.05855393409729
22-03-1990,2.75,2.75,177600.0,2.765625,2.765625,2.035553455352783
23-03-1990,2.796875,2.796875,320000.0,2.796875,2.796875,2.05855393409729
26-03-1990,2.75,2.78125,37600.0,2.78125,2.75,2.0240516662597656
27-03-1990,2.734375,2.734375,24000.0,2.75,2.75,2.0240516662597656
28-03-1990,2.84375,2.84375,706400.0,2.9375,2.921875,2.150555372238159
29-03-1990,2.890625,2.921875,361600.0,2.9375,2.90625,2.1390559673309326
30-03-1990,2.921875,2.921875,161600.0,2.921875,2.921875,2.150555372238159
02-04-1990,2.84375,2.921875,184800.0,2.921875,2.875,2.116055488586426
03-04-1990,2.875,2.875,358400.0,3.03125,2.984375,2.1965572834014893
04-04-1990,2.90625,2.984375,364800.0,2.984375,2.90625,2.1390559673309326
05-04-1990,2.90625,2.9375,373600.0,2.953125,2.90625,2.1390559673309326
06-04-1990,2.78125,2.921875,810400.0,2.921875,2.78125,2.047053575515747
09-04-1990,2.734375,2.734375,336800.0,2.765625,2.734375,2.017085075378418
10-04-1990,2.71875,2.75,426400.0,2.8125,2.765625,2.0401370525360107
11-04-1990,2.71875,2.78125,234400.0,2.8125,2.734375,2.017085075378418
12-04-1990,2.59375,2.71875,456000.0,2.734375,2.625,1.9364017248153687
16-04-1990,2.640625,2.640625,273600.0,2.734375,2.703125,1.9940325021743774
17-04-1990,2.703125,2.71875,16800.0,2.71875,2.71875,2.005558490753174
18-04-1990,2.6875,2.6875,333600.0,2.75,2.71875,2.005558490753174
19-04-1990,2.671875,2.71875,207200.0,2.71875,2.6875,1.9825067520141602
20-04-1990,2.65625,2.671875,168800.0,2.6875,2.671875,1.97097909450531
23-04-1990,2.625,2.65625,173600.0,2.65625,2.625,1.9364017248153687
24-04-1990,2.625,2.625,458400.0,2.671875,2.625,1.9364017248153687
25-04-1990,2.640625,2.65625,104000.0,2.671875,2.65625,1.959453821182251
26-04-1990,2.625,2.625,461600.0,2.6875,2.6875,1.9825067520141602
27-04-1990,2.6875,2.6875,133600.0,2.703125,2.703125,1.9940325021743774
30-04-1990,2.6875,2.703125,68800.0,2.71875,2.71875,2.005558490753174
01-05-1990,2.6875,2.71875,732800.0,2.828125,2.8125,2.074716806411743
02-05-1990,2.765625,2.78125,575200.0,2.828125,2.8125,2.074716806411743
03-05-1990,2.828125,2.84375,105600.0,2.859375,2.828125,2.086242914199829
04-05-1990,2.78125,2.84375,279200.0,2.84375,2.78125,2.051663875579834
07-05-1990,2.78125,2.78125,32800.0,2.84375,2.84375,2.0977675914764404
08-05-1990,2.828125,2.84375,48800.0,2.84375,2.828125,2.086242914199829
09-05-1990,2.796875,2.84375,1232800.0,2.859375,2.796875,2.06318998336792
10-05-1990,2.796875,2.8125,428000.0,2.84375,2.796875,2.06318998336792
11-05-1990,2.828125,2.828125,172000.0,2.875,2.875,2.1208207607269287
14-05-1990,2.75,2.890625,2418400.0,2.890625,2.75,2.028610944747925
15-05-1990,2.75,2.78125,5804800.0,2.828125,2.8125,2.074716806411743
16-05-1990,2.8125,2.8125,367200.0,2.96875,2.90625,2.143873691558838
17-05-1990,2.921875,2.921875,196000.0,2.953125,2.953125,2.178452253341675
18-05-1990,2.96875,2.96875,181600.0,3.0,3.0,2.21303129196167
21-05-1990,2.921875,2.96875,74400.0,2.96875,2.953125,2.178452253341675
22-05-1990,2.96875,2.984375,40800.0,2.984375,2.96875,2.1899778842926025
23-05-1990,2.90625,2.96875,30400.0,2.96875,2.90625,2.143873691558838
24-05-1990,2.75,2.921875,483200.0,2.921875,2.8125,2.074716806411743
25-05-1990,2.75,2.8125,817600.0,2.875,2.875,2.1208207607269287
29-05-1990,2.890625,2.890625,60800.0,2.90625,2.90625,2.143873691558838
30-05-1990,2.921875,2.9375,129600.0,2.984375,2.96875,2.1899778842926025
31-05-1990,2.90625,2.9375,143200.0,2.984375,2.96875,2.1899778842926025
01-06-1990,2.953125,2.96875,47200.0,2.984375,2.96875,2.1899778842926025
04-06-1990,2.90625,2.9375,68000.0,2.984375,2.984375,2.201504945755005
05-06-1990,2.796875,2.984375,1125600.0,3.0,2.890625,2.132347345352173
06-06-1990,2.875,2.890625,44000.0,2.90625,2.875,2.1208207607269287
07-06-1990,2.859375,2.890625,212800.0,2.890625,2.859375,2.1092941761016846
08-06-1990,2.8125,2.875,405600.0,2.875,2.84375,2.0977675914764404
11-06-1990,2.84375,2.859375,48800.0,2.890625,2.875,2.1208207607269287
12-06-1990,2.859375,2.90625,196000.0,3.0,2.984375,2.201504945755005
13-06-1990,2.96875,2.96875,208000.0,3.09375,2.96875,2.1899778842926025
14-06-1990,2.9375,2.953125,20800.0,2.984375,2.984375,2.201504945755005
15-06-1990,2.921875,2.984375,158400.0,2.984375,2.96875,2.1899778842926025
18-06-1990,2.96875,2.96875,1600.0,2.96875,2.96875,2.1899778842926025
19-06-1990,2.875,2.9375,174400.0,2.9375,2.921875,2.1553995609283447
20-06-1990,2.90625,2.953125,127200.0,2.953125,2.9375,2.1669254302978516
21-06-1990,2.921875,2.921875,6400.0,2.9375,2.9375,2.1669254302978516
22-06-1990,2.921875,2.9375,356800.0,2.953125,2.953125,2.178452253341675
25-06-1990,2.90625,2.921875,24800.0,2.9375,2.921875,2.1553995609283447
26-06-1990,2.859375,2.90625,207200.0,2.921875,2.921875,2.1553995609283447
27-06-1990,2.921875,2.921875,13600.0,2.9375,2.921875,2.1553995609283447
28-06-1990,2.9375,2.9375,157600.0,2.96875,2.96875,2.1899778842926025
29-06-1990,2.953125,2.984375,327200.0,2.984375,2.96875,2.1899778842926025
02-07-1990,2.875,2.953125,322400.0,2.953125,2.90625,2.143873691558838
03-07-1990,2.875,2.9375,308800.0,2.9375,2.875,2.1208207607269287
05-07-1990,2.8125,2.84375,596800.0,2.84375,2.828125,2.086242914199829
06-07-1990,2.78125,2.78125,82400.0,2.796875,2.796875,2.06318998336792
09-07-1990,2.75,2.796875,724800.0,2.8125,2.78125,2.051663875579834
10-07-1990,2.765625,2.78125,1073600.0,2.78125,2.78125,2.0562849044799805
11-07-1990,2.78125,2.78125,776000.0,2.8125,2.796875,2.0678374767303467
12-07-1990,2.796875,2.796875,1208800.0,2.90625,2.875,2.125596761703491
13-07-1990,2.90625,2.90625,568000.0,3.0,2.96875,2.1949105262756348
16-07-1990,2.96875,2.984375,680800.0,3.0,2.96875,2.1949105262756348
17-07-1990,2.921875,2.96875,102400.0,2.96875,2.921875,2.1602540016174316
18-07-1990,2.84375,2.921875,348000.0,2.921875,2.84375,2.1024928092956543
19-07-1990,2.796875,2.8125,465600.0,2.875,2.875,2.125596761703491
20-07-1990,2.890625,2.890625,51200.0,2.90625,2.890625,2.1371493339538574
23-07-1990,2.859375,2.875,349600.0,2.9375,2.9375,2.171806812286377
24-07-1990,2.90625,2.90625,353600.0,3.015625,2.984375,2.2064626216888428
25-07-1990,3.0,3.015625,52000.0,3.03125,3.03125,2.241119623184204
26-07-1990,3.03125,3.0625,80000.0,3.0625,3.0625,2.264223098754883
27-07-1990,2.984375,3.03125,75200.0,3.0625,2.984375,2.2064626216888428
30-07-1990,2.984375,3.0,160800.0,3.0,3.0,2.2180144786834717
31-07-1990,2.953125,2.953125,175200.0,3.015625,3.0,2.2180144786834717
01-08-1990,3.0,3.03125,134400.0,3.0625,3.015625,2.2295660972595215
02-08-1990,3.03125,3.125,1056800.0,3.171875,3.171875,2.345088005065918
03-08-1990,3.109375,3.15625,1272000.0,3.265625,3.203125,2.3681938648223877
06-08-1990,3.125,3.25,247200.0,3.265625,3.125,2.3104312419891357
07-08-1990,3.125,3.125,148800.0,3.140625,3.140625,2.3219845294952393
08-08-1990,3.09375,3.125,170400.0,3.140625,3.09375,2.287327766418457
09-08-1990,3.0625,3.09375,296000.0,3.09375,3.09375,2.287327766418457
10-08-1990,3.09375,3.09375,299200.0,3.109375,3.09375,2.287327766418457
13-08-1990,3.078125,3.109375,56800.0,3.125,3.078125,2.2757766246795654
14-08-1990,3.0625,3.109375,49600.0,3.109375,3.0625,2.264223098754883
15-08-1990,3.0625,3.0625,196000.0,3.15625,3.125,2.3104312419891357
16-08-1990,3.078125,3.109375,140000.0,3.125,3.109375,2.2988791465759277
17-08-1990,3.125,3.140625,201600.0,3.1875,3.140625,2.3219845294952393
20-08-1990,3.046875,3.15625,239200.0,3.15625,3.046875,2.2526724338531494
21-08-1990,3.0625,3.0625,452000.0,3.09375,3.078125,2.2757766246795654
22-08-1990,3.015625,3.0625,333600.0,3.09375,3.015625,2.2295660972595215
23-08-1990,2.9375,3.0,364000.0,3.0,2.96875,2.1949105262756348
24-08-1990,2.921875,2.921875,326400.0,3.0,3.0,2.2180144786834717
27-08-1990,2.953125,3.0,88000.0,3.0,2.953125,2.1833584308624268
28-08-1990,2.953125,2.953125,8000.0,2.984375,2.984375,2.2064626216888428
29-08-1990,2.9375,3.015625,140800.0,3.015625,2.9375,2.171806812286377
30-08-1990,2.90625,2.953125,65600.0,2.984375,2.984375,2.2064626216888428
31-08-1990,2.890625,2.953125,256800.0,2.984375,2.921875,2.1602540016174316
04-09-1990,2.9375,2.9375,20000.0,2.953125,2.953125,2.1833584308624268
05-09-1990,2.953125,2.953125,223200.0,3.1875,3.171875,2.345088005065918
06-09-1990,3.1875,3.203125,317600.0,3.296875,3.296875,2.437506675720215
07-09-1990,3.296875,3.296875,160800.0,3.359375,3.359375,2.4837148189544678
10-09-1990,3.328125,3.328125,1408800.0,3.390625,3.359375,2.4837148189544678
11-09-1990,3.1875,3.375,963200.0,3.375,3.3125,2.4490582942962646
12-09-1990,3.265625,3.34375,336000.0,3.34375,3.3125,2.4490582942962646
13-09-1990,3.25,3.3125,405600.0,3.328125,3.25,2.4028491973876953
14-09-1990,3.25,3.25,209600.0,3.390625,3.390625,2.506819725036621
17-09-1990,3.375,3.390625,1116000.0,3.46875,3.46875,2.564579486846924
18-09-1990,3.46875,3.46875,776800.0,3.765625,3.671875,2.714757204055786
19-09-1990,3.65625,3.6875,1624800.0,3.6875,3.65625,2.703205108642578
20-09-1990,3.53125,3.65625,432000.0,3.65625,3.53125,2.610788345336914
21-09-1990,3.46875,3.484375,521600.0,3.5625,3.5625,2.633892774581909
24-09-1990,3.484375,3.5625,112800.0,3.5625,3.515625,2.5992374420166016
25-09-1990,3.5,3.5,221600.0,3.515625,3.515625,2.5992374420166016
26-09-1990,3.453125,3.515625,55200.0,3.515625,3.46875,2.564579486846924
27-09-1990,3.375,3.4375,72800.0,3.453125,3.375,2.4952664375305176
28-09-1990,3.28125,3.375,163200.0,3.375,3.34375,2.472163200378418
01-10-1990,3.296875,3.328125,455200.0,3.390625,3.34375,2.472163200378418
02-10-1990,3.328125,3.359375,72000.0,3.359375,3.359375,2.4837148189544678
03-10-1990,3.3125,3.34375,26400.0,3.34375,3.34375,2.472163200378418
04-10-1990,3.25,3.34375,313600.0,3.34375,3.25,2.4028491973876953
05-10-1990,3.1875,3.234375,550400.0,3.296875,3.1875,2.356640338897705
08-10-1990,3.1875,3.203125,411200.0,3.234375,3.1875,2.356640338897705
09-10-1990,3.203125,3.203125,298400.0,3.375,3.34375,2.477020025253296
10-10-1990,3.21875,3.34375,200000.0,3.34375,3.234375,2.395995855331421
11-10-1990,3.203125,3.25,34400.0,3.25,3.21875,2.38442063331604
12-10-1990,3.171875,3.1875,89600.0,3.203125,3.203125,2.37284517288208
15-10-1990,3.15625,3.203125,36800.0,3.203125,3.15625,2.3381214141845703
16-10-1990,3.109375,3.140625,153600.0,3.15625,3.109375,2.3033974170684814
17-10-1990,3.09375,3.109375,11200.0,3.125,3.125,2.3149709701538086
18-10-1990,3.109375,3.109375,113600.0,3.125,3.109375,2.3033974170684814
19-10-1990,3.078125,3.109375,36800.0,3.109375,3.09375,2.291821002960205
22-10-1990,3.0625,3.109375,68000.0,3.109375,3.0625,2.2686715126037598
23-10-1990,3.0625,3.0625,17600.0,3.109375,3.109375,2.3033974170684814
24-10-1990,3.125,3.125,120000.0,3.15625,3.15625,2.3381214141845703
25-10-1990,3.1875,3.1875,112800.0,3.328125,3.328125,2.4654457569122314
26-10-1990,3.3125,3.3125,22400.0,3.359375,3.359375,2.488593816757202
29-10-1990,3.359375,3.375,16000.0,3.375,3.359375,2.488593816757202
30-10-1990,3.28125,3.34375,29600.0,3.359375,3.296875,2.4422950744628906
31-10-1990,3.3125,3.3125,366400.0,3.453125,3.375,2.500168800354004
01-11-1990,3.359375,3.375,163200.0,3.375,3.375,2.500168800354004
02-11-1990,3.375,3.375,469600.0,3.53125,3.5,2.5927679538726807
05-11-1990,3.46875,3.53125,426400.0,3.546875,3.46875,2.5696184635162354
06-11-1990,3.421875,3.484375,8800.0,3.484375,3.421875,2.5348942279815674
07-11-1990,3.375,3.421875,148000.0,3.421875,3.375,2.500168800354004
08-11-1990,3.34375,3.34375,37600.0,3.390625,3.390625,2.511744737625122
09-11-1990,3.375,3.375,397600.0,3.4375,3.421875,2.5348942279815674
12-11-1990,3.328125,3.390625,76800.0,3.390625,3.328125,2.4654457569122314
13-11-1990,3.109375,3.15625,208000.0,3.15625,3.109375,2.3033974170684814
14-11-1990,3.109375,3.125,75200.0,3.1875,3.1875,2.3612704277038574
15-11-1990,3.125,3.15625,45600.0,3.171875,3.140625,2.3265457153320312
16-11-1990,3.09375,3.140625,300800.0,3.15625,3.15625,2.3381214141845703
19-11-1990,2.984375,3.15625,456800.0,3.15625,2.984375,2.2107982635498047
20-11-1990,2.84375,2.96875,329600.0,2.96875,2.921875,2.1644973754882812
21-11-1990,2.890625,2.90625,32800.0,2.96875,2.96875,2.1992223262786865
23-11-1990,2.96875,2.96875,18400.0,2.984375,2.96875,2.1992223262786865
26-11-1990,2.96875,2.984375,40000.0,3.0,2.96875,2.1992223262786865
27-11-1990,2.9375,2.984375,39200.0,2.984375,2.953125,2.1876487731933594
28-11-1990,2.90625,2.953125,145600.0,2.953125,2.921875,2.1644973754882812
29-11-1990,2.90625,2.90625,36800.0,2.90625,2.90625,2.1529242992401123
30-11-1990,2.765625,2.875,236000.0,2.890625,2.8125,2.08347487449646
03-12-1990,2.609375,2.796875,366400.0,2.796875,2.75,2.037174701690674
04-12-1990,2.671875,2.734375,230400.0,2.734375,2.71875,2.0140254497528076
05-12-1990,2.71875,2.71875,432000.0,2.796875,2.78125,2.0603246688842773
06-12-1990,2.734375,2.78125,248800.0,2.8125,2.75,2.037174701690674
07-12-1990,2.625,2.71875,257600.0,2.71875,2.71875,2.0140254497528076
10-12-1990,2.703125,2.734375,179200.0,2.734375,2.71875,2.0140254497528076
11-12-1990,2.703125,2.703125,981600.0,2.78125,2.734375,2.025599956512451
12-12-1990,2.734375,2.75,493600.0,2.78125,2.78125,2.0603246688842773
13-12-1990,2.71875,2.75,908000.0,2.75,2.71875,2.0140254497528076
14-12-1990,2.65625,2.71875,207200.0,2.78125,2.78125,2.0603246688842773
17-12-1990,2.734375,2.796875,89600.0,2.828125,2.734375,2.025599956512451
18-12-1990,2.703125,2.765625,153600.0,2.796875,2.703125,2.002450704574585
19-12-1990,2.640625,2.703125,277600.0,2.734375,2.640625,1.9561511278152466
20-12-1990,2.546875,2.609375,1007200.0,2.609375,2.5625,1.898277997970581
21-12-1990,2.484375,2.484375,980000.0,2.515625,2.5,1.8519773483276367
24-12-1990,2.5,2.5,222400.0,2.546875,2.546875,1.886701226234436
26-12-1990,2.5625,2.5625,93600.0,2.75,2.75,2.037174701690674
27-12-1990,2.71875,2.75,51200.0,2.75,2.734375,2.025599956512451
28-12-1990,2.65625,2.71875,49600.0,2.71875,2.65625,1.9677258729934692
31-12-1990,2.53125,2.65625,364800.0,2.65625,2.65625,1.9677258729934692
02-01-1991,2.59375,2.625,36000.0,2.625,2.59375,1.9214253425598145
03-01-1991,2.484375,2.59375,413600.0,2.59375,2.484375,1.840402603149414
04-01-1991,2.328125,2.4375,216800.0,2.4375,2.328125,1.724652647972107
07-01-1991,2.21875,2.296875,599200.0,2.3125,2.265625,1.6783541440963745
08-01-1991,2.15625,2.25,679200.0,2.265625,2.15625,1.59732985496521
09-01-1991,2.140625,2.171875,572000.0,2.1875,2.140625,1.5903656482696533
10-01-1991,2.09375,2.125,296000.0,2.140625,2.140625,1.5903656482696533
11-01-1991,2.109375,2.109375,278400.0,2.21875,2.21875,1.648408055305481
14-01-1991,2.21875,2.234375,172800.0,2.265625,2.25,1.6716233491897583
15-01-1991,2.171875,2.25,92800.0,2.25,2.234375,1.6600165367126465
16-01-1991,2.171875,2.234375,50400.0,2.25,2.203125,1.6367994546890259
17-01-1991,2.03125,2.1875,1341600.0,2.25,2.203125,1.6367994546890259
18-01-1991,2.15625,2.203125,275200.0,2.21875,2.1875,1.6251904964447021
21-01-1991,2.0625,2.15625,550400.0,2.15625,2.125,1.5787562131881714
22-01-1991,2.125,2.15625,174400.0,2.171875,2.125,1.5787562131881714
23-01-1991,2.140625,2.140625,837600.0,2.265625,2.25,1.6716233491897583
24-01-1991,2.265625,2.3125,495200.0,2.34375,2.28125,1.694841742515564
25-01-1991,2.21875,2.3125,817600.0,2.375,2.25,1.6716233491897583
28-01-1991,2.203125,2.28125,679200.0,2.296875,2.234375,1.6600165367126465
29-01-1991,2.25,2.25,99200.0,2.265625,2.25,1.6716233491897583
30-01-1991,2.203125,2.21875,132000.0,2.25,2.234375,1.6600165367126465
31-01-1991,2.15625,2.21875,384800.0,2.21875,2.171875,1.6135823726654053
01-02-1991,2.15625,2.15625,869600.0,2.21875,2.21875,1.648408055305481
04-02-1991,2.203125,2.21875,961600.0,2.28125,2.25,1.6716233491897583
05-02-1991,2.25,2.25,1217600.0,2.375,2.28125,1.694841742515564
06-02-1991,2.28125,2.28125,1186400.0,2.5,2.484375,1.8457525968551636
07-02-1991,2.546875,2.546875,1224000.0,2.78125,2.6875,1.9966628551483154
08-02-1991,2.640625,2.65625,94400.0,2.6875,2.671875,1.9850540161132812
11-02-1991,2.640625,2.6875,307200.0,2.75,2.703125,2.0082716941833496
12-02-1991,2.59375,2.734375,216000.0,2.734375,2.59375,1.9270108938217163
13-02-1991,2.625,2.625,45600.0,2.703125,2.703125,2.0082716941833496
14-02-1991,2.515625,2.6875,148800.0,2.6875,2.515625,1.8689699172973633
15-02-1991,2.484375,2.484375,356800.0,2.609375,2.609375,1.938621163368225
19-02-1991,2.515625,2.59375,160800.0,2.59375,2.546875,1.8921855688095093
20-02-1991,2.515625,2.546875,219200.0,2.625,2.625,1.9502288103103638
21-02-1991,2.59375,2.609375,188000.0,2.625,2.59375,1.9270108938217163
22-02-1991,2.453125,2.59375,408000.0,2.59375,2.453125,1.8225359916687012
25-02-1991,2.328125,2.453125,88800.0,2.453125,2.328125,1.7296661138534546
26-02-1991,2.265625,2.3125,776800.0,2.328125,2.3125,1.7180583477020264
27-02-1991,2.34375,2.34375,1544000.0,2.453125,2.4375,1.810926914215088
28-02-1991,2.453125,2.46875,578400.0,2.59375,2.59375,1.9270108938217163
01-03-1991,2.53125,2.59375,692800.0,2.59375,2.546875,1.8921855688095093
04-03-1991,2.546875,2.546875,555200.0,2.609375,2.59375,1.9270108938217163
05-03-1991,2.5625,2.5625,418400.0,2.578125,2.578125,1.9154032468795776
06-03-1991,2.546875,2.546875,180800.0,2.59375,2.5625,1.9037961959838867
07-03-1991,2.5625,2.5625,280800.0,2.625,2.625,1.9502288103103638
08-03-1991,2.59375,2.625,442400.0,2.78125,2.671875,1.9850540161132812
11-03-1991,2.6875,2.6875,116000.0,2.75,2.71875,2.0198795795440674
12-03-1991,2.6875,2.75,163200.0,2.75,2.6875,1.9966628551483154
13-03-1991,2.59375,2.671875,147200.0,2.671875,2.59375,1.9270108938217163
14-03-1991,2.546875,2.578125,184000.0,2.59375,2.5625,1.9037961959838867
15-03-1991,2.546875,2.546875,289600.0,2.65625,2.625,1.9502288103103638
18-03-1991,2.625,2.640625,136000.0,2.6875,2.6875,1.9966628551483154
19-03-1991,2.609375,2.65625,172000.0,2.65625,2.625,1.9502288103103638
20-03-1991,2.625,2.625,71200.0,2.65625,2.65625,1.9734461307525635
21-03-1991,2.65625,2.671875,327200.0,2.734375,2.734375,2.0314881801605225
22-03-1991,2.703125,2.734375,93600.0,2.734375,2.703125,2.0082716941833496
25-03-1991,2.640625,2.71875,115200.0,2.71875,2.703125,2.0082716941833496
26-03-1991,2.625,2.671875,447200.0,2.6875,2.65625,1.9734461307525635
27-03-1991,2.578125,2.640625,86400.0,2.640625,2.578125,1.9154032468795776
28-03-1991,2.515625,2.578125,70400.0,2.59375,2.515625,1.8689699172973633
01-04-1991,2.453125,2.53125,128000.0,2.53125,2.453125,1.8225359916687012
02-04-1991,2.359375,2.46875,367200.0,2.46875,2.375,1.764492154121399
03-04-1991,2.3125,2.359375,1358400.0,2.4375,2.3125,1.7180583477020264
04-04-1991,2.34375,2.34375,1049600.0,2.40625,2.40625,1.7877094745635986
05-04-1991,2.421875,2.421875,73600.0,2.484375,2.484375,1.8457525968551636
08-04-1991,2.4375,2.46875,24000.0,2.46875,2.4375,1.810926914215088
09-04-1991,2.375,2.40625,198400.0,2.4375,2.4375,1.810926914215088
10-04-1991,2.34375,2.421875,198400.0,2.421875,2.390625,1.7806671857833862
11-04-1991,2.359375,2.40625,255200.0,2.4375,2.40625,1.79230535030365
12-04-1991,2.390625,2.40625,398400.0,2.46875,2.46875,1.8388590812683105
15-04-1991,2.5,2.5,258400.0,2.5625,2.546875,1.897050142288208
16-04-1991,2.53125,2.53125,468000.0,2.640625,2.625,1.9552425146102905
17-04-1991,2.578125,2.640625,662400.0,2.640625,2.578125,1.9203273057937622
18-04-1991,2.609375,2.609375,68800.0,2.640625,2.625,1.9552425146102905
19-04-1991,2.5625,2.609375,20000.0,2.625,2.578125,1.9203273057937622
22-04-1991,2.484375,2.578125,263200.0,2.578125,2.5,1.862135887145996
23-04-1991,2.453125,2.484375,69600.0,2.5,2.5,1.862135887145996
24-04-1991,2.46875,2.5,44800.0,2.5,2.5,1.862135887145996
25-04-1991,2.46875,2.484375,70400.0,2.484375,2.46875,1.8388590812683105
26-04-1991,2.421875,2.453125,24000.0,2.453125,2.4375,1.8155823945999146
29-04-1991,2.34375,2.421875,373600.0,2.421875,2.34375,1.7457523345947266
30-04-1991,2.328125,2.375,1024800.0,2.375,2.375,1.7690281867980957
01-05-1991,2.34375,2.375,403200.0,2.421875,2.421875,1.8039448261260986
02-05-1991,2.375,2.40625,714400.0,2.40625,2.375,1.7690281867980957
03-05-1991,2.359375,2.40625,464000.0,2.4375,2.390625,1.7806671857833862
06-05-1991,2.359375,2.375,11200.0,2.375,2.359375,1.7573896646499634
07-05-1991,2.28125,2.375,360800.0,2.375,2.34375,1.7457523345947266
08-05-1991,2.328125,2.34375,567200.0,2.453125,2.4375,1.8155823945999146
09-05-1991,2.40625,2.453125,150400.0,2.46875,2.46875,1.8388590812683105
10-05-1991,2.375,2.453125,88800.0,2.453125,2.375,1.7690281867980957
13-05-1991,2.28125,2.359375,872000.0,2.359375,2.28125,1.6991990804672241
14-05-1991,2.28125,2.28125,366400.0,2.375,2.3125,1.7224749326705933
15-05-1991,2.3125,2.3125,276000.0,2.40625,2.390625,1.7806671857833862
16-05-1991,2.421875,2.453125,404000.0,2.46875,2.421875,1.8039448261260986
17-05-1991,2.390625,2.421875,25600.0,2.421875,2.40625,1.79230535030365
20-05-1991,2.390625,2.40625,121600.0,2.4375,2.40625,1.79230535030365
21-05-1991,2.34375,2.4375,480800.0,2.4375,2.375,1.7690281867980957
22-05-1991,2.375,2.375,31200.0,2.390625,2.390625,1.7806671857833862
23-05-1991,2.375,2.40625,240800.0,2.421875,2.40625,1.79230535030365
24-05-1991,2.375,2.421875,160800.0,2.453125,2.390625,1.7806671857833862
28-05-1991,2.375,2.375,60000.0,2.453125,2.4375,1.8155823945999146
29-05-1991,2.421875,2.4375,334400.0,2.4375,2.4375,1.8155823945999146
30-05-1991,2.421875,2.4375,521600.0,2.5,2.5,1.862135887145996
31-05-1991,2.53125,2.53125,1612000.0,2.625,2.625,1.9552425146102905
03-06-1991,2.609375,2.65625,256000.0,2.6875,2.625,1.9552425146102905
04-06-1991,2.625,2.65625,1272800.0,2.671875,2.625,1.9552425146102905
05-06-1991,2.578125,2.625,141600.0,2.625,2.578125,1.9203273057937622
06-06-1991,2.5625,2.5625,201600.0,2.609375,2.59375,1.9319648742675781
07-06-1991,2.53125,2.59375,473600.0,2.59375,2.53125,1.8854116201400757
10-06-1991,2.53125,2.546875,168000.0,2.5625,2.53125,1.8854116201400757
11-06-1991,2.4375,2.53125,155200.0,2.53125,2.5,1.862135887145996
12-06-1991,2.484375,2.5,51200.0,2.5,2.5,1.862135887145996
13-06-1991,2.484375,2.5,1600.0,2.5,2.484375,1.850497841835022
14-06-1991,2.46875,2.46875,83200.0,2.46875,2.46875,1.8388590812683105
17-06-1991,2.453125,2.46875,21600.0,2.46875,2.453125,1.827221155166626
18-06-1991,2.4375,2.46875,341600.0,2.46875,2.46875,1.8388590812683105
19-06-1991,2.46875,2.46875,170400.0,2.5,2.5,1.862135887145996
20-06-1991,2.375,2.4375,30400.0,2.4375,2.375,1.7690281867980957
21-06-1991,2.3125,2.34375,251200.0,2.375,2.34375,1.7457523345947266
24-06-1991,2.3125,2.359375,124800.0,2.375,2.375,1.7690281867980957
25-06-1991,2.359375,2.375,39200.0,2.375,2.359375,1.7573896646499634
26-06-1991,2.296875,2.328125,188000.0,2.359375,2.3125,1.7224749326705933
27-06-1991,2.28125,2.3125,260800.0,2.34375,2.3125,1.7224749326705933
28-06-1991,2.25,2.3125,418400.0,2.3125,2.25,1.6759209632873535
01-07-1991,2.203125,2.25,188800.0,2.25,2.203125,1.6410073041915894
02-07-1991,2.21875,2.21875,127200.0,2.25,2.234375,1.6642842292785645
03-07-1991,2.203125,2.203125,267200.0,2.28125,2.25,1.6759209632873535
05-07-1991,2.25,2.25,3200.0,2.25,2.25,1.6759209632873535
08-07-1991,2.25,2.25,192800.0,2.296875,2.296875,1.710837960243225
09-07-1991,2.234375,2.28125,359200.0,2.3125,2.265625,1.6921647787094116
10-07-1991,2.234375,2.25,56000.0,2.25,2.234375,1.6688246726989746
11-07-1991,2.25,2.25,152800.0,2.328125,2.3125,1.727175235748291
12-07-1991,2.28125,2.34375,1025600.0,2.359375,2.296875,1.7155051231384277
15-07-1991,2.328125,2.328125,791200.0,2.375,2.375,1.7738553285598755
16-07-1991,2.34375,2.359375,1204800.0,2.421875,2.421875,1.8088663816452026
17-07-1991,2.4375,2.453125,1052000.0,2.59375,2.59375,1.9372366666793823
18-07-1991,2.625,2.625,304800.0,2.671875,2.671875,1.995586633682251
19-07-1991,2.609375,2.671875,73600.0,2.671875,2.625,1.9605783224105835
22-07-1991,2.5625,2.625,72000.0,2.625,2.59375,1.9372366666793823
23-07-1991,2.578125,2.609375,124000.0,2.625,2.578125,1.9255664348602295
24-07-1991,2.578125,2.578125,39200.0,2.59375,2.578125,1.9255664348602295
25-07-1991,2.5625,2.5625,232800.0,2.578125,2.5625,1.9138970375061035
26-07-1991,2.5625,2.5625,226400.0,2.59375,2.59375,1.9372366666793823
29-07-1991,2.59375,2.609375,6400.0,2.609375,2.609375,1.9489083290100098
30-07-1991,2.59375,2.59375,582400.0,2.65625,2.625,1.9605783224105835
31-07-1991,2.53125,2.5625,698400.0,2.578125,2.53125,1.8905569314956665
01-08-1991,2.53125,2.53125,248800.0,2.578125,2.5625,1.9138970375061035
02-08-1991,2.546875,2.546875,71200.0,2.546875,2.546875,1.9022266864776611
05-08-1991,2.546875,2.5625,96800.0,2.578125,2.5625,1.9138970375061035
06-08-1991,2.5625,2.5625,457600.0,2.625,2.59375,1.9372366666793823
07-08-1991,2.59375,2.59375,733600.0,2.625,2.625,1.9605783224105835
08-08-1991,2.625,2.640625,413600.0,2.6875,2.640625,1.9722470045089722
09-08-1991,2.625,2.625,111200.0,2.65625,2.65625,1.9839168787002563
12-08-1991,2.640625,2.6875,223200.0,2.703125,2.65625,1.9839168787002563
13-08-1991,2.640625,2.640625,118400.0,2.6875,2.6875,2.0072574615478516
14-08-1991,2.671875,2.671875,372000.0,2.75,2.75,2.0539369583129883
15-08-1991,2.71875,2.75,369600.0,2.75,2.75,2.0539369583129883
16-08-1991,2.703125,2.734375,490400.0,2.734375,2.703125,2.0189270973205566
19-08-1991,2.609375,2.671875,91200.0,2.671875,2.609375,1.9489083290100098
20-08-1991,2.609375,2.609375,22400.0,2.625,2.625,1.9605783224105835
21-08-1991,2.609375,2.625,78400.0,2.625,2.625,1.9605783224105835
22-08-1991,2.5625,2.640625,292800.0,2.640625,2.59375,1.9372366666793823
23-08-1991,2.59375,2.59375,1125600.0,2.75,2.75,2.0539369583129883
26-08-1991,2.734375,2.75,183200.0,2.78125,2.75,2.0539369583129883
27-08-1991,2.75,2.75,362400.0,2.84375,2.8125,2.100619077682495
28-08-1991,2.828125,2.84375,203200.0,2.953125,2.9375,2.193979024887085
29-08-1991,2.921875,2.921875,416800.0,3.0,2.953125,2.2056496143341064
30-08-1991,2.90625,2.96875,236800.0,2.96875,2.921875,2.1823086738586426
03-09-1991,2.78125,2.890625,230400.0,2.890625,2.78125,2.0772786140441895
04-09-1991,2.75,2.765625,175200.0,2.8125,2.765625,2.065608501434326
05-09-1991,2.796875,2.796875,309600.0,2.828125,2.8125,2.100619077682495
06-09-1991,2.78125,2.8125,55200.0,2.828125,2.828125,2.1122889518737793
09-09-1991,2.8125,2.8125,8000.0,2.84375,2.84375,2.1239590644836426
10-09-1991,2.8125,2.828125,452800.0,2.84375,2.84375,2.1239590644836426
11-09-1991,2.8125,2.828125,145600.0,2.84375,2.84375,2.1239590644836426
12-09-1991,2.84375,2.859375,48000.0,2.859375,2.84375,2.1239590644836426
13-09-1991,2.828125,2.875,366400.0,2.875,2.84375,2.1239590644836426
16-09-1991,2.828125,2.859375,433600.0,2.859375,2.84375,2.1239590644836426
17-09-1991,2.84375,2.84375,648800.0,2.890625,2.890625,2.158967971801758
18-09-1991,2.90625,2.90625,136800.0,2.9375,2.9375,2.193979024887085
19-09-1991,2.921875,2.953125,153600.0,3.03125,3.03125,2.2639994621276855
20-09-1991,3.0,3.078125,312000.0,3.078125,3.03125,2.2639994621276855
23-09-1991,2.96875,3.0625,113600.0,3.0625,2.96875,2.2173187732696533
24-09-1991,2.875,2.96875,77600.0,2.96875,2.875,2.1472983360290527
25-09-1991,2.875,2.890625,7200.0,2.890625,2.875,2.1472983360290527
26-09-1991,2.875,2.90625,296000.0,2.953125,2.953125,2.2056496143341064
27-09-1991,2.953125,2.96875,70400.0,3.0,2.96875,2.2173187732696533
30-09-1991,2.953125,2.953125,229600.0,2.984375,2.984375,2.228990316390991
01-10-1991,2.859375,2.984375,1317600.0,3.0,2.859375,2.1356282234191895
02-10-1991,2.84375,2.84375,740800.0,2.9375,2.90625,2.1706395149230957
03-10-1991,2.890625,2.90625,106400.0,2.90625,2.890625,2.158967971801758
04-10-1991,2.859375,2.875,599200.0,2.890625,2.890625,2.158967971801758
07-10-1991,2.859375,2.875,973600.0,2.9375,2.9375,2.193979024887085
08-10-1991,2.90625,2.9375,735200.0,2.953125,2.9375,2.1986582279205322
09-10-1991,2.90625,2.9375,43200.0,2.9375,2.90625,2.1752679347991943
10-10-1991,2.875,2.90625,144000.0,2.921875,2.90625,2.1752679347991943
11-10-1991,2.90625,2.921875,23200.0,2.921875,2.921875,2.1869618892669678
14-10-1991,2.9375,2.9375,32000.0,2.984375,2.96875,2.2220466136932373
15-10-1991,2.984375,2.984375,181600.0,3.015625,3.015625,2.2571327686309814
16-10-1991,3.0,3.046875,104000.0,3.078125,3.0,2.2454376220703125
17-10-1991,2.984375,3.0,89600.0,3.03125,3.03125,2.268826723098755
18-10-1991,3.0,3.046875,87200.0,3.046875,3.0,2.2454376220703125
21-10-1991,2.984375,2.984375,3200.0,2.984375,2.984375,2.2337417602539062
22-10-1991,2.875,2.953125,495200.0,2.953125,2.875,2.151876211166382
23-10-1991,2.890625,2.953125,95200.0,2.953125,2.890625,2.163571834564209
24-10-1991,2.84375,2.875,35200.0,2.875,2.84375,2.1284866333007812
25-10-1991,2.75,2.8125,277600.0,2.8125,2.765625,2.070012092590332
28-10-1991,2.75,2.75,181600.0,2.84375,2.84375,2.1284866333007812
29-10-1991,2.75,2.859375,404800.0,2.859375,2.765625,2.070012092590332
30-10-1991,2.78125,2.78125,12800.0,2.796875,2.796875,2.0934019088745117
31-10-1991,2.796875,2.8125,37600.0,2.84375,2.84375,2.1284866333007812
01-11-1991,2.84375,2.859375,62400.0,2.9375,2.9375,2.1986582279205322
04-11-1991,2.921875,2.921875,624800.0,3.078125,3.03125,2.268826723098755
05-11-1991,3.046875,3.046875,421600.0,3.140625,3.109375,2.3273022174835205
06-11-1991,3.03125,3.140625,228000.0,3.140625,3.03125,2.268826723098755
07-11-1991,3.0,3.046875,206400.0,3.046875,3.03125,2.268826723098755
08-11-1991,3.015625,3.015625,96800.0,3.0625,3.0625,2.2922165393829346
11-11-1991,3.03125,3.0625,20000.0,3.0625,3.03125,2.268826723098755
12-11-1991,3.0,3.0,71200.0,3.046875,3.03125,2.268826723098755
13-11-1991,3.03125,3.03125,127200.0,3.140625,3.125,2.338996410369873
14-11-1991,3.015625,3.125,102400.0,3.125,3.03125,2.268826723098755
15-11-1991,2.890625,3.015625,141600.0,3.015625,2.9375,2.1986582279205322
18-11-1991,2.875,2.9375,236800.0,2.9375,2.875,2.151876211166382
19-11-1991,2.8125,2.890625,143200.0,2.890625,2.8125,2.105097532272339
20-11-1991,2.78125,2.796875,144000.0,2.796875,2.78125,2.081707000732422
21-11-1991,2.78125,2.78125,202400.0,2.84375,2.796875,2.0934019088745117
22-11-1991,2.75,2.78125,97600.0,2.78125,2.75,2.058316946029663
25-11-1991,2.75,2.75,16800.0,2.765625,2.765625,2.070012092590332
26-11-1991,2.609375,2.75,346400.0,2.75,2.625,1.9647572040557861
27-11-1991,2.625,2.640625,76800.0,2.65625,2.625,1.9647572040557861
29-11-1991,2.640625,2.640625,28800.0,2.65625,2.65625,1.9881471395492554
02-12-1991,2.59375,2.65625,299200.0,2.671875,2.59375,1.9413665533065796
03-12-1991,2.59375,2.59375,97600.0,2.65625,2.65625,1.9881471395492554
04-12-1991,2.625,2.65625,20800.0,2.65625,2.625,1.9647572040557861
05-12-1991,2.625,2.625,96800.0,2.6875,2.640625,1.9764525890350342
06-12-1991,2.640625,2.640625,858400.0,2.65625,2.640625,1.9764525890350342
09-12-1991,2.59375,2.625,57600.0,2.625,2.59375,1.9413665533065796
10-12-1991,2.484375,2.5625,171200.0,2.5625,2.5,1.8711974620819092
11-12-1991,2.453125,2.515625,415200.0,2.5625,2.546875,1.9062824249267578
12-12-1991,2.515625,2.515625,124000.0,2.53125,2.53125,1.8945859670639038
13-12-1991,2.5,2.53125,319200.0,2.53125,2.5,1.8711974620819092
16-12-1991,2.484375,2.5,372800.0,2.515625,2.515625,1.8828929662704468
17-12-1991,2.515625,2.515625,683200.0,2.53125,2.53125,1.8945859670639038
18-12-1991,2.546875,2.546875,112800.0,2.578125,2.578125,1.9296724796295166
19-12-1991,2.53125,2.5625,392800.0,2.5625,2.546875,1.9062824249267578
20-12-1991,2.5,2.53125,164800.0,2.53125,2.515625,1.8828929662704468
23-12-1991,2.421875,2.5,1115200.0,2.5,2.421875,1.812721610069275
24-12-1991,2.40625,2.421875,107200.0,2.515625,2.515625,1.8828929662704468
26-12-1991,2.5,2.5,15200.0,2.515625,2.5,1.8711974620819092
27-12-1991,2.46875,2.5,48000.0,2.5,2.46875,1.84780752658844
30-12-1991,2.421875,2.46875,920800.0,2.46875,2.4375,1.8244179487228394
31-12-1991,2.421875,2.4375,116000.0,2.484375,2.4375,1.8244179487228394
02-01-1992,2.390625,2.421875,732000.0,2.421875,2.390625,1.7893331050872803
03-01-1992,2.375,2.390625,277600.0,2.390625,2.375,1.7776373624801636
06-01-1992,2.3125,2.390625,528000.0,2.390625,2.328125,1.742552399635315
07-01-1992,2.140625,2.3125,584000.0,2.3125,2.140625,1.6022133827209473
08-01-1992,2.109375,2.125,692800.0,2.203125,2.125,1.5905171632766724
09-01-1992,2.109375,2.125,348000.0,2.171875,2.171875,1.664775013923645
10-01-1992,2.140625,2.15625,840800.0,2.234375,2.234375,1.7126814126968384
13-01-1992,2.234375,2.234375,456000.0,2.328125,2.296875,1.7605887651443481
14-01-1992,2.21875,2.296875,281600.0,2.3125,2.21875,1.7007044553756714
15-01-1992,2.234375,2.234375,377600.0,2.296875,2.28125,1.748611569404602
16-01-1992,2.28125,2.28125,80800.0,2.328125,2.328125,1.7845419645309448
17-01-1992,2.359375,2.359375,47200.0,2.421875,2.421875,1.8564023971557617
20-01-1992,2.421875,2.421875,91200.0,2.53125,2.515625,1.9282639026641846
21-01-1992,2.515625,2.53125,578400.0,2.546875,2.515625,1.9282639026641846
22-01-1992,2.484375,2.515625,300000.0,2.515625,2.484375,1.9043095111846924
23-01-1992,2.453125,2.46875,313600.0,2.5,2.453125,1.8803573846817017
24-01-1992,2.3125,2.453125,1104800.0,2.453125,2.3125,1.7725653648376465
27-01-1992,2.25,2.296875,292800.0,2.296875,2.265625,1.7366359233856201
28-01-1992,2.1875,2.265625,2736800.0,2.265625,2.1875,1.6767511367797852
29-01-1992,2.15625,2.203125,463200.0,2.25,2.203125,1.6887272596359253
30-01-1992,2.140625,2.140625,405600.0,2.21875,2.1875,1.6767511367797852
31-01-1992,2.1875,2.203125,714400.0,2.296875,2.25,1.7246578931808472
03-02-1992,2.21875,2.265625,96800.0,2.265625,2.234375,1.7126814126968384
04-02-1992,2.1875,2.21875,355200.0,2.234375,2.203125,1.6887272596359253
05-02-1992,2.15625,2.203125,604000.0,2.203125,2.171875,1.664775013923645
06-02-1992,2.09375,2.1875,492800.0,2.1875,2.09375,1.6048895120620728
07-02-1992,2.078125,2.078125,704000.0,2.21875,2.21875,1.7007044553756714
10-02-1992,2.234375,2.234375,782400.0,2.34375,2.328125,1.7845419645309448
11-02-1992,2.3125,2.328125,241600.0,2.34375,2.3125,1.7725653648376465
12-02-1992,2.28125,2.3125,446400.0,2.328125,2.3125,1.7725653648376465
13-02-1992,2.296875,2.3125,161600.0,2.3125,2.296875,1.7605887651443481
14-02-1992,2.28125,2.296875,190400.0,2.328125,2.328125,1.7845419645309448
18-02-1992,2.28125,2.3125,504800.0,2.3125,2.296875,1.7605887651443481
19-02-1992,2.265625,2.28125,20800.0,2.28125,2.265625,1.7366359233856201
20-02-1992,2.265625,2.265625,260800.0,2.296875,2.296875,1.7605887651443481
21-02-1992,2.296875,2.296875,311200.0,2.328125,2.3125,1.7725653648376465
24-02-1992,2.3125,2.328125,249600.0,2.34375,2.3125,1.7725653648376465
25-02-1992,2.28125,2.3125,144000.0,2.3125,2.28125,1.748611569404602
26-02-1992,2.25,2.265625,835200.0,2.265625,2.265625,1.7366359233856201
27-02-1992,2.25,2.25,67200.0,2.296875,2.265625,1.7366359233856201
28-02-1992,2.234375,2.234375,321600.0,2.265625,2.234375,1.7126814126968384
02-03-1992,2.25,2.25,588800.0,2.296875,2.25,1.7246578931808472
03-03-1992,2.25,2.265625,608800.0,2.28125,2.25,1.7246578931808472
04-03-1992,2.234375,2.234375,488000.0,2.25,2.25,1.7246578931808472
05-03-1992,2.265625,2.265625,607200.0,2.28125,2.28125,1.748611569404602
06-03-1992,2.28125,2.28125,404800.0,2.296875,2.28125,1.748611569404602
09-03-1992,2.28125,2.28125,348000.0,2.328125,2.328125,1.7845419645309448
10-03-1992,2.328125,2.328125,348000.0,2.40625,2.390625,1.8324488401412964
11-03-1992,2.390625,2.40625,376000.0,2.40625,2.40625,1.8444273471832275
12-03-1992,2.40625,2.4375,347200.0,2.4375,2.40625,1.8444273471832275
13-03-1992,2.421875,2.4375,138400.0,2.46875,2.46875,1.8923327922821045
16-03-1992,2.40625,2.5,122400.0,2.5,2.40625,1.8444273471832275
17-03-1992,2.421875,2.4375,569600.0,2.4375,2.4375,1.8683804273605347
18-03-1992,2.40625,2.421875,46400.0,2.421875,2.40625,1.8444273471832275
19-03-1992,2.375,2.4375,394400.0,2.4375,2.40625,1.8444273471832275
20-03-1992,2.453125,2.46875,232000.0,2.484375,2.46875,1.8923327922821045
23-03-1992,2.5,2.5,545600.0,2.546875,2.5,1.9162873029708862
24-03-1992,2.5,2.5,618400.0,2.578125,2.5625,1.9641941785812378
25-03-1992,2.5625,2.578125,116800.0,2.578125,2.578125,1.9761707782745361
26-03-1992,2.609375,2.609375,959200.0,2.734375,2.6875,2.0600082874298096
27-03-1992,2.609375,2.625,236800.0,2.65625,2.625,2.012101888656616
30-03-1992,2.609375,2.625,324800.0,2.625,2.625,2.012101888656616
31-03-1992,2.640625,2.640625,307200.0,2.65625,2.65625,2.0360546112060547
01-04-1992,2.609375,2.65625,172800.0,2.65625,2.609375,2.000126600265503
02-04-1992,2.578125,2.609375,878400.0,2.609375,2.59375,1.988146424293518
03-04-1992,2.546875,2.5625,109600.0,2.5625,2.5625,1.9641941785812378
06-04-1992,2.578125,2.578125,336000.0,2.734375,2.734375,2.0959391593933105
07-04-1992,2.6875,2.734375,612000.0,2.734375,2.6875,2.0983779430389404
08-04-1992,2.625,2.671875,771200.0,2.671875,2.625,2.049578905105591
09-04-1992,2.609375,2.609375,170400.0,2.75,2.75,2.152301549911499
10-04-1992,2.734375,2.734375,213600.0,2.75,2.734375,2.140073776245117
13-04-1992,2.75,2.765625,141600.0,2.78125,2.765625,2.1645312309265137
14-04-1992,2.78125,2.78125,228000.0,2.8125,2.8125,2.201218843460083
15-04-1992,2.8125,2.8125,312000.0,2.828125,2.828125,2.2134485244750977
16-04-1992,2.8125,2.8125,39200.0,2.828125,2.8125,2.201218843460083
20-04-1992,2.8125,2.8125,245600.0,2.890625,2.890625,2.262362241744995
21-04-1992,2.875,2.921875,337600.0,2.921875,2.90625,2.274592399597168
22-04-1992,2.875,2.890625,8800.0,2.890625,2.875,2.2501349449157715
23-04-1992,2.84375,2.875,1366400.0,2.984375,2.875,2.2501349449157715
24-04-1992,3.0,3.03125,687200.0,3.171875,3.0,2.347965955734253
27-04-1992,3.03125,3.0625,511200.0,3.09375,3.046875,2.3846540451049805
28-04-1992,3.015625,3.046875,234400.0,3.046875,3.03125,2.3724253177642822
29-04-1992,3.03125,3.046875,237600.0,3.046875,3.03125,2.3724253177642822
30-04-1992,3.03125,3.046875,1008800.0,3.0625,3.046875,2.3846540451049805
01-05-1992,3.03125,3.03125,146400.0,3.046875,3.046875,2.3846540451049805
04-05-1992,3.0625,3.0625,251200.0,3.078125,3.0625,2.396883249282837
05-05-1992,3.046875,3.046875,532000.0,3.078125,3.078125,2.409111499786377
06-05-1992,3.015625,3.078125,792800.0,3.078125,3.015625,2.360194206237793
07-05-1992,2.96875,3.015625,61600.0,3.015625,2.96875,2.3235085010528564
08-05-1992,2.9375,3.0,42400.0,3.0,2.953125,2.311279296875
11-05-1992,2.90625,2.953125,91200.0,2.953125,2.90625,2.274592399597168
12-05-1992,2.75,2.921875,1191200.0,2.921875,2.796875,2.18898868560791
13-05-1992,2.765625,2.796875,261600.0,2.796875,2.765625,2.1645312309265137
14-05-1992,2.6875,2.765625,1236800.0,2.84375,2.84375,2.225675344467163
15-05-1992,2.8125,2.828125,509600.0,2.90625,2.890625,2.262362241744995
18-05-1992,2.90625,2.90625,431200.0,3.015625,3.0,2.347965955734253
19-05-1992,2.953125,3.0,572000.0,3.046875,3.046875,2.3846540451049805
20-05-1992,3.0625,3.0625,200800.0,3.09375,3.09375,2.421339750289917
21-05-1992,3.078125,3.078125,946400.0,3.15625,3.09375,2.421339750289917
22-05-1992,3.078125,3.09375,230400.0,3.15625,3.140625,2.4580280780792236
26-05-1992,3.125,3.140625,1300800.0,3.1875,3.1875,2.4947144985198975
27-05-1992,3.125,3.203125,1122400.0,3.25,3.125,2.445798635482788
28-05-1992,3.078125,3.140625,627200.0,3.140625,3.125,2.445798635482788
29-05-1992,3.078125,3.125,368800.0,3.125,3.09375,2.421339750289917
01-06-1992,3.078125,3.078125,348800.0,3.171875,3.171875,2.482485055923462
02-06-1992,3.125,3.140625,108000.0,3.15625,3.140625,2.4580280780792236
03-06-1992,3.125,3.15625,1278400.0,3.1875,3.15625,2.4702565670013428
04-06-1992,3.125,3.125,1169600.0,3.140625,3.140625,2.4580280780792236
05-06-1992,3.140625,3.15625,816800.0,3.1875,3.1875,2.4947144985198975
08-06-1992,3.21875,3.21875,1822400.0,3.375,3.3125,2.592545747756958
09-06-1992,3.28125,3.3125,2077600.0,3.34375,3.3125,2.592545747756958
10-06-1992,3.21875,3.3125,778400.0,3.3125,3.28125,2.5680885314941406
11-06-1992,3.28125,3.28125,438400.0,3.40625,3.40625,2.665919542312622
12-06-1992,3.34375,3.375,2042400.0,3.375,3.34375,2.6170055866241455
15-06-1992,3.296875,3.328125,2438400.0,3.328125,3.3125,2.592545747756958
16-06-1992,3.296875,3.328125,660800.0,3.328125,3.296875,2.580317497253418
17-06-1992,3.21875,3.3125,673600.0,3.3125,3.234375,2.5314018726348877
18-06-1992,3.21875,3.21875,948800.0,3.265625,3.234375,2.5314018726348877
19-06-1992,3.234375,3.25,417600.0,3.265625,3.234375,2.5314018726348877
22-06-1992,3.203125,3.203125,568000.0,3.21875,3.203125,2.5069432258605957
23-06-1992,3.203125,3.203125,518400.0,3.21875,3.203125,2.5069432258605957
24-06-1992,3.171875,3.21875,224000.0,3.21875,3.21875,2.519172191619873
25-06-1992,3.125,3.21875,307200.0,3.21875,3.125,2.445798635482788
26-06-1992,3.109375,3.125,629600.0,3.140625,3.140625,2.4580280780792236
29-06-1992,3.125,3.125,1169600.0,3.1875,3.171875,2.482485055923462
30-06-1992,3.15625,3.1875,1156800.0,3.1875,3.1875,2.4947144985198975
01-07-1992,3.203125,3.21875,694400.0,3.25,3.25,2.543631076812744
02-07-1992,3.25,3.28125,2007200.0,3.296875,3.28125,2.5680885314941406
06-07-1992,3.296875,3.3125,771200.0,3.328125,3.3125,2.592545747756958
07-07-1992,3.3125,3.3125,655200.0,3.359375,3.328125,2.604774236679077
08-07-1992,3.3125,3.328125,480800.0,3.34375,3.328125,2.604774236679077
09-07-1992,3.328125,3.34375,424000.0,3.375,3.359375,2.6341795921325684
10-07-1992,3.328125,3.390625,568800.0,3.390625,3.328125,2.6096763610839844
13-07-1992,3.328125,3.328125,624800.0,3.359375,3.359375,2.6341795921325684
14-07-1992,3.390625,3.390625,627200.0,3.625,3.578125,2.8057098388671875
15-07-1992,3.515625,3.59375,465600.0,3.609375,3.53125,2.7689530849456787
16-07-1992,3.390625,3.5,143200.0,3.5,3.421875,2.683187961578369
17-07-1992,3.421875,3.4375,45600.0,3.453125,3.4375,2.6954405307769775
20-07-1992,3.390625,3.4375,645600.0,3.453125,3.390625,2.658684015274048
21-07-1992,3.390625,3.390625,224000.0,3.421875,3.40625,2.670936107635498
22-07-1992,3.40625,3.40625,235200.0,3.484375,3.484375,2.7321958541870117
23-07-1992,3.46875,3.5,112000.0,3.515625,3.5,2.7444489002227783
24-07-1992,3.5,3.5,329600.0,3.609375,3.609375,2.830211877822876
27-07-1992,3.5625,3.609375,66400.0,3.609375,3.59375,2.817960262298584
28-07-1992,3.53125,3.59375,91200.0,3.59375,3.5625,2.7934553623199463
29-07-1992,3.546875,3.5625,84800.0,3.578125,3.578125,2.8057098388671875
30-07-1992,3.5625,3.5625,565600.0,3.640625,3.640625,2.8547163009643555
31-07-1992,3.625,3.640625,500800.0,3.65625,3.640625,2.8547163009643555
03-08-1992,3.625,3.625,492000.0,3.703125,3.703125,2.903723955154419
04-08-1992,3.6875,3.6875,398400.0,3.71875,3.71875,2.915976047515869
05-08-1992,3.375,3.59375,268800.0,3.59375,3.40625,2.670936107635498
06-08-1992,3.171875,3.25,1166400.0,3.265625,3.25,2.548417329788208
07-08-1992,3.25,3.25,996000.0,3.515625,3.515625,2.7567012310028076
10-08-1992,3.5,3.515625,88000.0,3.5625,3.546875,2.7812039852142334
11-08-1992,3.546875,3.546875,2608000.0,3.5625,3.546875,2.7812039852142334
12-08-1992,3.5625,3.5625,92800.0,3.59375,3.59375,2.817960262298584
13-08-1992,3.609375,3.625,684800.0,3.734375,3.734375,2.928227663040161
14-08-1992,3.734375,3.78125,1344000.0,3.84375,3.75,2.9404799938201904
17-08-1992,3.671875,3.71875,1498400.0,3.71875,3.6875,2.8914730548858643
18-08-1992,3.578125,3.671875,823200.0,3.6875,3.59375,2.817960262298584
19-08-1992,3.5,3.5,844800.0,3.6875,3.5625,2.7934553623199463
20-08-1992,3.5625,3.625,7611200.0,3.640625,3.59375,2.817960262298584
21-08-1992,3.59375,3.609375,1631200.0,3.640625,3.59375,2.817960262298584
24-08-1992,3.578125,3.578125,1412000.0,3.609375,3.578125,2.8057098388671875
25-08-1992,3.578125,3.578125,1002400.0,3.71875,3.671875,2.8792202472686768
26-08-1992,3.6875,3.6875,1988000.0,3.75,3.75,2.9404799938201904
27-08-1992,3.71875,3.734375,872800.0,3.796875,3.78125,2.9649832248687744
28-08-1992,3.8125,3.8125,1732800.0,3.9375,3.9375,3.0875046253204346
31-08-1992,3.84375,3.90625,1392800.0,3.984375,3.875,3.0384953022003174
01-09-1992,3.859375,3.875,740000.0,3.9375,3.90625,3.062999963760376
02-09-1992,3.875,3.9375,458400.0,3.953125,3.890625,3.050748825073242
03-09-1992,3.890625,3.90625,617600.0,3.921875,3.921875,3.0752522945404053
04-09-1992,3.921875,3.921875,190400.0,3.96875,3.953125,3.09975528717041
08-09-1992,3.953125,3.953125,1150400.0,4.09375,4.078125,3.197772741317749
09-09-1992,4.0625,4.078125,660000.0,4.09375,4.09375,3.2100231647491455
10-09-1992,4.0625,4.09375,809600.0,4.109375,4.078125,3.197772741317749
11-09-1992,4.0625,4.078125,549600.0,4.109375,4.109375,3.222276210784912
14-09-1992,4.109375,4.140625,684000.0,4.171875,4.125,3.2345287799835205
15-09-1992,4.109375,4.125,557600.0,4.140625,4.109375,3.222276210784912
16-09-1992,4.09375,4.109375,723200.0,4.171875,4.125,3.2345287799835205
17-09-1992,4.125,4.125,565600.0,4.28125,4.21875,3.308040142059326
18-09-1992,4.1875,4.1875,668000.0,4.3125,4.3125,3.38155198097229
21-09-1992,4.328125,4.328125,808000.0,4.34375,4.34375,3.4060564041137695
22-09-1992,4.296875,4.3125,662400.0,4.375,4.359375,3.418308973312378
23-09-1992,4.359375,4.375,898400.0,4.46875,4.375,3.4305596351623535
24-09-1992,4.390625,4.390625,1256800.0,4.484375,4.46875,3.5040721893310547
25-09-1992,4.203125,4.421875,1837600.0,4.4375,4.25,3.3325445652008057
28-09-1992,4.109375,4.25,1749600.0,4.25,4.125,3.2345287799835205
29-09-1992,4.171875,4.203125,276800.0,4.234375,4.234375,3.32029390335083
30-09-1992,4.15625,4.21875,330400.0,4.234375,4.15625,3.2590322494506836
01-10-1992,4.03125,4.140625,378400.0,4.140625,4.03125,3.1610147953033447
02-10-1992,4.015625,4.046875,772800.0,4.078125,4.046875,3.173269033432007
05-10-1992,3.953125,4.046875,312000.0,4.046875,3.96875,3.1120080947875977
06-10-1992,3.90625,3.96875,885600.0,3.96875,3.9375,3.0875046253204346
07-10-1992,3.953125,3.953125,649600.0,4.015625,3.984375,3.124260902404785
08-10-1992,3.96875,3.96875,266400.0,4.0625,4.0,3.1414401531219482
09-10-1992,3.90625,3.96875,112000.0,4.03125,3.9375,3.0923545360565186
12-10-1992,3.9375,3.9375,351200.0,3.953125,3.953125,3.104626178741455
13-10-1992,3.890625,3.9375,412000.0,3.953125,3.9375,3.0923545360565186
14-10-1992,3.921875,3.9375,341600.0,3.953125,3.9375,3.0923545360565186
15-10-1992,3.90625,3.9375,205600.0,3.9375,3.90625,3.067812919616699
16-10-1992,3.921875,3.921875,1151200.0,4.078125,4.0625,3.190523862838745
19-10-1992,4.0625,4.0625,756000.0,4.3125,4.28125,3.362321376800537
20-10-1992,4.203125,4.265625,209600.0,4.265625,4.21875,3.313237428665161
21-10-1992,4.140625,4.203125,104800.0,4.203125,4.15625,3.2641525268554688
22-10-1992,3.953125,4.140625,365600.0,4.140625,3.953125,3.104626178741455
23-10-1992,3.9375,3.96875,101600.0,3.96875,3.953125,3.104626178741455
26-10-1992,3.953125,3.953125,396800.0,4.015625,4.0,3.1414401531219482
27-10-1992,3.8125,3.984375,318400.0,3.984375,3.859375,3.030998468399048
28-10-1992,3.71875,3.859375,920800.0,3.859375,3.828125,3.0064549446105957
29-10-1992,3.828125,3.828125,348000.0,3.90625,3.84375,3.018728494644165
30-10-1992,3.8125,3.875,143200.0,3.875,3.8125,2.9941842555999756
02-11-1992,3.828125,3.828125,156800.0,3.875,3.875,3.043269395828247
03-11-1992,3.75,3.875,296800.0,3.875,3.75,2.9451005458831787
04-11-1992,3.65625,3.765625,464000.0,3.78125,3.65625,2.8714723587036133
05-11-1992,3.46875,3.625,1245600.0,3.625,3.484375,2.7364885807037354
06-11-1992,3.53125,3.53125,1823200.0,3.671875,3.65625,2.8714723587036133
09-11-1992,3.5,3.625,1322400.0,3.65625,3.546875,2.7855732440948486
10-11-1992,3.5625,3.5625,1669600.0,3.625,3.625,2.8469295501708984
11-11-1992,3.5625,3.625,551200.0,3.625,3.5625,2.7978458404541016
12-11-1992,3.5625,3.625,1320800.0,3.640625,3.578125,2.8101160526275635
13-11-1992,3.59375,3.609375,324000.0,3.640625,3.625,2.8469295501708984
16-11-1992,3.609375,3.609375,257600.0,3.65625,3.65625,2.8714723587036133
17-11-1992,3.625,3.625,304000.0,3.640625,3.625,2.8469295501708984
18-11-1992,3.625,3.625,693600.0,3.640625,3.640625,2.8592021465301514
19-11-1992,3.46875,3.609375,821600.0,3.640625,3.5,2.7487597465515137
20-11-1992,3.53125,3.53125,536800.0,3.59375,3.59375,2.8223865032196045
23-11-1992,3.5625,3.5625,660000.0,3.671875,3.625,2.8469295501708984
24-11-1992,3.578125,3.609375,503200.0,3.609375,3.59375,2.8223865032196045
25-11-1992,3.578125,3.578125,96000.0,3.609375,3.59375,2.8223865032196045
27-11-1992,3.578125,3.59375,230400.0,3.625,3.625,2.8469295501708984
30-11-1992,3.53125,3.625,539200.0,3.625,3.546875,2.7855732440948486
01-12-1992,3.53125,3.546875,1116800.0,3.546875,3.53125,2.7733023166656494
02-12-1992,3.53125,3.53125,721600.0,3.578125,3.578125,2.8101160526275635
03-12-1992,3.421875,3.5625,1191200.0,3.5625,3.4375,2.699674606323242
04-12-1992,3.421875,3.4375,1249600.0,3.5,3.5,2.7487597465515137
07-12-1992,3.484375,3.484375,167200.0,3.546875,3.5,2.7487597465515137
08-12-1992,3.453125,3.5,580000.0,3.515625,3.484375,2.7364885807037354
09-12-1992,3.484375,3.5,374400.0,3.546875,3.53125,2.7733023166656494
10-12-1992,3.484375,3.546875,1601600.0,3.609375,3.609375,2.834657669067383
11-12-1992,3.65625,3.65625,151200.0,3.703125,3.671875,2.8837435245513916
14-12-1992,3.609375,3.671875,920000.0,3.671875,3.65625,2.8714723587036133
15-12-1992,3.609375,3.640625,406400.0,3.640625,3.625,2.8469295501708984
16-12-1992,3.59375,3.609375,402400.0,3.625,3.59375,2.8223865032196045
17-12-1992,3.5625,3.609375,52800.0,3.609375,3.5625,2.7978458404541016
18-12-1992,3.578125,3.59375,295200.0,3.59375,3.59375,2.8223865032196045
21-12-1992,3.546875,3.578125,488000.0,3.578125,3.546875,2.7855732440948486
22-12-1992,3.53125,3.5625,960800.0,3.5625,3.546875,2.7855732440948486
23-12-1992,3.515625,3.546875,1008000.0,3.546875,3.515625,2.7610323429107666
24-12-1992,3.53125,3.546875,655200.0,3.59375,3.59375,2.8223865032196045
28-12-1992,3.53125,3.578125,97600.0,3.578125,3.546875,2.7855732440948486
29-12-1992,3.53125,3.546875,596000.0,3.59375,3.5625,2.7978458404541016
30-12-1992,3.546875,3.578125,639200.0,3.578125,3.546875,2.7855732440948486
31-12-1992,3.5625,3.5625,376000.0,3.6875,3.671875,2.8837435245513916
04-01-1993,3.609375,3.6875,597600.0,3.71875,3.609375,2.834657669067383
05-01-1993,3.578125,3.609375,715200.0,3.6875,3.6875,2.8960137367248535
06-01-1993,3.59375,3.6875,928800.0,3.6875,3.609375,2.834657669067383
07-01-1993,3.5625,3.609375,333600.0,3.609375,3.578125,2.8101160526275635
08-01-1993,3.46875,3.578125,1617600.0,3.578125,3.46875,2.724217414855957
11-01-1993,3.375,3.484375,410400.0,3.484375,3.390625,2.6686320304870605
12-01-1993,3.359375,3.390625,269600.0,3.40625,3.40625,2.680929660797119
13-01-1993,3.359375,3.40625,826400.0,3.484375,3.46875,2.7301204204559326
14-01-1993,3.34375,3.4375,619200.0,3.453125,3.34375,2.63173770904541
15-01-1993,3.359375,3.375,1232800.0,3.421875,3.390625,2.6686320304870605
18-01-1993,3.359375,3.390625,460000.0,3.390625,3.375,2.6563332080841064
19-01-1993,3.359375,3.359375,1157600.0,3.484375,3.453125,2.7178220748901367
20-01-1993,3.4375,3.453125,132800.0,3.484375,3.46875,2.7301204204559326
21-01-1993,3.4375,3.4375,272800.0,3.5,3.5,2.75471568107605
22-01-1993,3.5,3.515625,540800.0,3.59375,3.59375,2.8285024166107178
25-01-1993,3.578125,3.578125,969600.0,3.703125,3.6875,2.9022891521453857
26-01-1993,3.78125,3.8125,1224000.0,3.875,3.78125,2.9760775566101074
27-01-1993,3.703125,3.734375,636000.0,3.765625,3.75,2.9514827728271484
28-01-1993,3.75,3.765625,773600.0,3.90625,3.90625,3.0744593143463135
29-01-1993,3.890625,3.90625,492800.0,4.0,3.96875,3.1236517429351807
01-02-1993,4.0,4.0,1876800.0,4.078125,4.0625,3.197436571121216
02-02-1993,4.046875,4.046875,1044000.0,4.09375,4.09375,3.2220335006713867
03-02-1993,4.09375,4.09375,1448000.0,4.359375,4.296875,3.3819053173065186
04-02-1993,4.328125,4.328125,1330400.0,4.4375,4.4375,3.4925849437713623
05-02-1993,4.4375,4.4375,1606400.0,4.515625,4.5,3.5417778491973877
08-02-1993,4.46875,4.5,1975200.0,4.5,4.5,3.5417778491973877
09-02-1993,4.40625,4.5,756000.0,4.5,4.421875,3.480289936065674
10-02-1993,4.359375,4.421875,800000.0,4.453125,4.375,3.443394422531128
11-02-1993,4.359375,4.359375,971200.0,4.5,4.484375,3.529479742050171
12-02-1993,4.46875,4.484375,932000.0,4.484375,4.484375,3.529479742050171
16-02-1993,4.34375,4.46875,292800.0,4.46875,4.34375,3.4188005924224854
17-02-1993,4.34375,4.359375,632800.0,4.40625,4.390625,3.455693483352661
18-02-1993,4.421875,4.421875,604800.0,4.484375,4.4375,3.4925849437713623
19-02-1993,4.421875,4.4375,3408800.0,4.515625,4.5,3.5417778491973877
22-02-1993,4.5,4.5,1140000.0,4.609375,4.5625,3.5909695625305176
23-02-1993,4.5,4.59375,664000.0,4.59375,4.546875,3.5786728858947754
24-02-1993,4.46875,4.515625,499200.0,4.515625,4.484375,3.529479742050171
25-02-1993,4.359375,4.484375,259200.0,4.484375,4.359375,3.4310972690582275
26-02-1993,4.359375,4.390625,128000.0,4.421875,4.40625,3.467988967895508
01-03-1993,4.421875,4.4375,1396000.0,4.53125,4.4375,3.4925849437713623
02-03-1993,4.4375,4.46875,332800.0,4.484375,4.453125,3.504884958267212
03-03-1993,4.46875,4.46875,4088800.0,4.84375,4.78125,3.7631382942199707
04-03-1993,4.640625,4.75,913600.0,4.78125,4.734375,3.726245880126953
05-03-1993,4.6875,4.71875,335200.0,4.734375,4.6875,3.6893510818481445
08-03-1993,4.703125,4.703125,472000.0,4.796875,4.78125,3.7631382942199707
09-03-1993,4.75,4.796875,324000.0,4.796875,4.78125,3.7631382942199707
10-03-1993,4.734375,4.78125,199200.0,4.8125,4.8125,3.7877354621887207
11-03-1993,4.796875,4.8125,213600.0,4.921875,4.890625,3.8492228984832764
12-03-1993,4.796875,4.921875,702400.0,4.921875,4.84375,3.812330722808838
15-03-1993,4.84375,4.84375,209600.0,4.875,4.875,3.8369245529174805
16-03-1993,4.84375,4.859375,316800.0,4.875,4.859375,3.824629068374634
17-03-1993,4.859375,4.875,136800.0,4.984375,4.984375,3.9230124950408936
18-03-1993,4.921875,4.96875,444000.0,5.0,5.0,3.935310125350952
19-03-1993,4.96875,4.984375,300800.0,5.0,4.96875,3.9107131958007812
22-03-1993,4.96875,4.984375,640800.0,5.0,4.984375,3.9230124950408936
23-03-1993,4.96875,5.015625,100800.0,5.015625,4.96875,3.9107131958007812
24-03-1993,4.96875,4.96875,574400.0,5.078125,4.96875,3.9107131958007812
25-03-1993,4.84375,4.90625,1020000.0,4.921875,4.84375,3.812330722808838
26-03-1993,4.8125,4.84375,753600.0,4.921875,4.90625,3.861522912979126
29-03-1993,4.921875,4.921875,589600.0,4.984375,4.984375,3.9230124950408936
30-03-1993,5.0,5.0,663200.0,5.03125,5.03125,3.9599037170410156
31-03-1993,4.96875,5.03125,558400.0,5.03125,5.015625,3.9476048946380615
01-04-1993,4.984375,5.03125,537600.0,5.03125,5.0,3.935310125350952
02-04-1993,4.859375,4.953125,240800.0,4.953125,4.890625,3.8492228984832764
05-04-1993,4.875,4.90625,292800.0,4.90625,4.90625,3.861522912979126
06-04-1993,4.875,4.90625,604800.0,4.90625,4.875,3.8369245529174805
07-04-1993,4.8125,4.84375,860000.0,4.875,4.875,3.8369245529174805
08-04-1993,4.859375,4.859375,24000.0,4.875,4.875,3.8428361415863037
12-04-1993,4.859375,4.859375,325600.0,4.96875,4.96875,3.916738748550415
13-04-1993,4.84375,4.96875,1076800.0,5.03125,4.875,3.8428361415863037
14-04-1993,4.84375,4.890625,447200.0,4.890625,4.84375,3.818204879760742
15-04-1993,4.8125,4.875,231200.0,4.921875,4.8125,3.7935729026794434
16-04-1993,4.796875,4.828125,356800.0,4.84375,4.84375,3.818204879760742
19-04-1993,4.828125,4.828125,173600.0,4.890625,4.875,3.8428361415863037
20-04-1993,4.90625,4.90625,1133600.0,5.0625,4.984375,3.9290568828582764
21-04-1993,4.875,5.015625,185600.0,5.015625,4.875,3.8428361415863037
22-04-1993,4.671875,4.84375,335200.0,4.84375,4.671875,3.682720422744751
23-04-1993,4.46875,4.671875,786400.0,4.671875,4.5,3.5472352504730225
26-04-1993,4.515625,4.53125,367200.0,4.640625,4.625,3.6457695960998535
27-04-1993,4.625,4.65625,108000.0,4.65625,4.640625,3.6580867767333984
28-04-1993,4.625,4.625,189600.0,4.640625,4.640625,3.6580867767333984
29-04-1993,4.625,4.65625,383200.0,4.75,4.75,3.7443034648895264
30-04-1993,4.75,4.75,779200.0,4.96875,4.921875,3.879788398742676
03-05-1993,4.953125,4.953125,249600.0,4.984375,4.953125,3.904423236846924
04-05-1993,4.90625,4.921875,1332800.0,4.953125,4.921875,3.879788398742676
05-05-1993,4.921875,4.921875,65600.0,4.9375,4.921875,3.879788398742676
06-05-1993,4.921875,4.921875,664800.0,5.0,4.9375,3.8921046257019043
07-05-1993,4.90625,4.921875,186400.0,4.96875,4.921875,3.879788398742676
10-05-1993,4.8125,4.9375,828000.0,4.9375,4.8125,3.7935729026794434
11-05-1993,4.78125,4.78125,1120800.0,4.953125,4.9375,3.8921046257019043
12-05-1993,4.90625,4.9375,852000.0,4.984375,4.953125,3.904423236846924
13-05-1993,4.90625,4.90625,702400.0,5.09375,5.0625,3.9906392097473145
14-05-1993,5.0625,5.0625,931200.0,5.265625,5.171875,4.076858043670654
17-05-1993,5.15625,5.171875,390400.0,5.203125,5.203125,4.101490020751953
18-05-1993,5.203125,5.203125,340800.0,5.328125,5.296875,4.175391674041748
19-05-1993,5.1875,5.3125,412800.0,5.3125,5.234375,4.126125812530518
20-05-1993,5.21875,5.21875,216000.0,5.25,5.234375,4.126125812530518
21-05-1993,5.203125,5.234375,400000.0,5.234375,5.21875,4.113807201385498
24-05-1993,5.21875,5.25,496000.0,5.25,5.234375,4.126125812530518
25-05-1993,5.171875,5.1875,400800.0,5.25,5.1875,4.089171886444092
26-05-1993,5.15625,5.1875,188000.0,5.203125,5.203125,4.101490020751953
27-05-1993,5.203125,5.203125,511200.0,5.3125,5.3125,4.187708377838135
28-05-1993,5.28125,5.296875,473600.0,5.3125,5.3125,4.187708377838135
01-06-1993,5.328125,5.34375,619200.0,5.4375,5.40625,4.261609077453613
02-06-1993,5.40625,5.40625,522400.0,5.625,5.5625,4.384775638580322
03-06-1993,5.484375,5.5625,403200.0,5.5625,5.515625,4.347825527191162
04-06-1993,5.484375,5.5,889600.0,5.515625,5.5,4.335509300231934
07-06-1993,5.484375,5.5,482400.0,5.515625,5.5,4.335509300231934
08-06-1993,5.421875,5.484375,277600.0,5.484375,5.4375,4.286243438720703
09-06-1993,5.40625,5.40625,262400.0,5.5,5.5,4.335509300231934
10-06-1993,5.4375,5.484375,779200.0,5.484375,5.4375,4.286243438720703
11-06-1993,5.234375,5.40625,606400.0,5.40625,5.234375,4.126125812530518
14-06-1993,5.125,5.21875,763200.0,5.21875,5.125,4.0399065017700195
15-06-1993,5.125,5.125,288800.0,5.15625,5.125,4.0399065017700195
16-06-1993,5.140625,5.140625,219200.0,5.203125,5.203125,4.101490020751953
17-06-1993,5.21875,5.21875,193600.0,5.328125,5.25,4.1384429931640625
18-06-1993,5.265625,5.28125,224800.0,5.296875,5.265625,4.150756359100342
21-06-1993,5.28125,5.28125,292800.0,5.359375,5.34375,4.212341785430908
22-06-1993,5.265625,5.34375,1112000.0,5.34375,5.265625,4.150756359100342
23-06-1993,5.265625,5.265625,2466400.0,5.296875,5.296875,4.175391674041748
24-06-1993,5.0625,5.296875,637600.0,5.296875,5.125,4.0399065017700195
25-06-1993,5.109375,5.125,36000.0,5.125,5.125,4.0399065017700195
28-06-1993,5.125,5.125,204800.0,5.140625,5.140625,4.05222225189209
29-06-1993,4.984375,5.109375,648000.0,5.125,5.046875,3.978323221206665
30-06-1993,5.03125,5.0625,552000.0,5.09375,5.09375,4.0152716636657715
01-07-1993,5.015625,5.078125,376800.0,5.078125,5.046875,3.978323221206665
02-07-1993,5.015625,5.0625,100000.0,5.0625,5.046875,3.978323221206665
06-07-1993,5.0,5.046875,437600.0,5.09375,5.0,3.9413719177246094
07-07-1993,4.96875,4.96875,1369600.0,5.078125,5.078125,4.002957344055176
08-07-1993,5.078125,5.078125,955200.0,5.1875,5.1875,4.089171886444092
09-07-1993,5.171875,5.171875,1352000.0,5.25,5.25,4.144434928894043
12-07-1993,5.28125,5.28125,900000.0,5.34375,5.3125,4.193774223327637
13-07-1993,5.28125,5.3125,100000.0,5.3125,5.28125,4.169101238250732
14-07-1993,5.28125,5.28125,538400.0,5.3125,5.28125,4.169101238250732
15-07-1993,5.21875,5.3125,338400.0,5.3125,5.25,4.144434928894043
16-07-1993,5.234375,5.25,147200.0,5.265625,5.25,4.144434928894043
19-07-1993,5.25,5.296875,417600.0,5.296875,5.28125,4.169101238250732
20-07-1993,5.25,5.25,713600.0,5.3125,5.3125,4.193774223327637
21-07-1993,5.3125,5.3125,395200.0,5.34375,5.3125,4.193774223327637
22-07-1993,5.28125,5.3125,314400.0,5.3125,5.296875,4.1814374923706055
23-07-1993,5.25,5.296875,341600.0,5.3125,5.3125,4.193774223327637
26-07-1993,5.296875,5.34375,196000.0,5.34375,5.296875,4.1814374923706055
27-07-1993,5.21875,5.265625,191200.0,5.28125,5.25,4.144434928894043
28-07-1993,5.234375,5.25,356800.0,5.296875,5.265625,4.15676736831665
29-07-1993,5.25,5.265625,98400.0,5.3125,5.296875,4.1814374923706055
30-07-1993,5.3125,5.3125,57600.0,5.328125,5.328125,4.206106662750244
02-08-1993,5.3125,5.328125,1029600.0,5.46875,5.46875,4.317116737365723
03-08-1993,5.484375,5.484375,356000.0,5.578125,5.5625,4.3911261558532715
04-08-1993,5.546875,5.546875,400000.0,5.65625,5.625,4.440464496612549
05-08-1993,5.609375,5.609375,56000.0,5.640625,5.625,4.440464496612549
06-08-1993,5.578125,5.625,348800.0,5.625,5.59375,4.415795803070068
09-08-1993,5.609375,5.609375,344800.0,5.6875,5.6875,4.489803791046143
10-08-1993,5.6875,5.6875,632800.0,5.75,5.75,4.5391411781311035
11-08-1993,5.78125,5.78125,784800.0,6.0,6.0,4.7364959716796875
12-08-1993,5.984375,6.0,1103200.0,6.21875,6.015625,4.748829364776611
13-08-1993,5.9375,6.03125,226400.0,6.03125,5.9375,4.687157154083252
16-08-1993,5.9375,5.9375,448000.0,5.984375,5.984375,4.724161148071289
17-08-1993,6.0625,6.0625,640000.0,6.25,6.25,4.933849334716797
18-08-1993,6.234375,6.234375,805600.0,6.484375,6.421875,5.069528102874756
19-08-1993,6.3125,6.4375,424000.0,6.46875,6.3125,4.983186721801758
20-08-1993,6.3125,6.3125,914400.0,6.453125,6.453125,5.094198703765869
23-08-1993,6.453125,6.46875,964800.0,6.703125,6.703125,5.2915544509887695
24-08-1993,6.53125,6.703125,704000.0,6.703125,6.5625,5.180541515350342
25-08-1993,6.4375,6.5625,753600.0,6.578125,6.453125,5.094198703765869
26-08-1993,6.25,6.453125,817600.0,6.453125,6.296875,4.970851898193359
27-08-1993,6.03125,6.28125,627200.0,6.28125,6.125,4.835171699523926
30-08-1993,6.109375,6.125,529600.0,6.25,6.21875,4.909178733825684
31-08-1993,6.171875,6.234375,888000.0,6.328125,6.28125,4.958519458770752
01-09-1993,6.28125,6.28125,388800.0,6.390625,6.375,5.032525062561035
02-09-1993,6.28125,6.375,286400.0,6.375,6.28125,4.958519458770752
03-09-1993,6.28125,6.28125,135200.0,6.328125,6.296875,4.970851898193359
07-09-1993,6.125,6.296875,236800.0,6.328125,6.125,4.835171699523926
08-09-1993,5.953125,6.125,388800.0,6.125,5.953125,4.699493885040283
09-09-1993,5.921875,5.953125,533600.0,5.984375,5.96875,4.711825370788574
10-09-1993,5.953125,5.96875,121600.0,5.984375,5.984375,4.724161148071289
13-09-1993,5.921875,5.984375,472800.0,6.03125,5.921875,4.6748223304748535
14-09-1993,5.90625,5.953125,633600.0,5.96875,5.9375,4.687157154083252
15-09-1993,5.921875,5.9375,994400.0,6.046875,6.0,4.7364959716796875
16-09-1993,6.0,6.0,152800.0,6.03125,6.0,4.7364959716796875
17-09-1993,5.890625,5.96875,127200.0,5.96875,5.9375,4.687157154083252
20-09-1993,5.9375,5.9375,248000.0,5.96875,5.96875,4.711825370788574
21-09-1993,5.96875,5.96875,218400.0,6.03125,6.015625,4.748829364776611
22-09-1993,5.96875,6.0,99200.0,6.03125,5.96875,4.711825370788574
23-09-1993,5.953125,5.984375,232800.0,5.984375,5.984375,4.724161148071289
24-09-1993,5.953125,5.96875,357600.0,6.0,5.96875,4.711825370788574
27-09-1993,5.953125,5.953125,441600.0,6.0,5.984375,4.724161148071289
28-09-1993,5.921875,5.984375,326400.0,5.984375,5.9375,4.687157154083252
29-09-1993,5.9375,5.9375,1200800.0,6.453125,6.453125,5.094198703765869
30-09-1993,6.453125,6.453125,755200.0,6.625,6.625,5.229881763458252
01-10-1993,6.59375,6.59375,599200.0,6.71875,6.71875,5.303887367248535
04-10-1993,6.640625,6.71875,248000.0,6.75,6.640625,5.242213249206543
05-10-1993,6.578125,6.65625,122400.0,6.65625,6.578125,5.192873954772949
06-10-1993,6.5,6.578125,114400.0,6.578125,6.53125,5.1558709144592285
07-10-1993,6.4375,6.5,224000.0,6.5,6.484375,5.118869304656982
08-10-1993,6.40625,6.484375,245600.0,6.484375,6.421875,5.075397491455078
11-10-1993,6.25,6.421875,288000.0,6.421875,6.25,4.939563751220703
12-10-1993,6.125,6.25,272800.0,6.25,6.125,4.840770244598389
13-10-1993,5.96875,6.078125,826400.0,6.109375,5.984375,4.7296319007873535
14-10-1993,6.0,6.09375,388000.0,6.125,6.03125,4.7666778564453125
15-10-1993,5.828125,6.0,707200.0,6.0,5.875,4.643186092376709
18-10-1993,5.71875,5.875,719200.0,5.875,5.75,4.54439640045166
19-10-1993,5.484375,5.75,1467200.0,5.875,5.828125,4.606143951416016
20-10-1993,5.3125,5.796875,1626400.0,5.796875,5.3125,4.198630332946777
21-10-1993,5.4375,5.4375,3216000.0,5.6875,5.5,4.34681510925293
22-10-1993,5.375,5.5,928800.0,5.5,5.375,4.248021125793457
25-10-1993,5.28125,5.375,901600.0,5.421875,5.28125,4.173928737640381
26-10-1993,5.0,5.28125,1536800.0,5.3125,5.03125,3.9763436317443848
27-10-1993,5.0625,5.0625,1416000.0,5.1875,5.1875,4.099836826324463
28-10-1993,5.1875,5.1875,1215200.0,5.453125,5.453125,4.309768199920654
29-10-1993,5.328125,5.421875,412800.0,5.46875,5.34375,4.223325252532959
01-11-1993,5.34375,5.359375,379200.0,5.484375,5.453125,4.309768199920654
02-11-1993,5.453125,5.453125,553600.0,5.578125,5.5625,4.396210670471191
03-11-1993,5.578125,5.609375,540800.0,5.671875,5.625,4.445605754852295
04-11-1993,5.625,5.65625,345600.0,5.734375,5.625,4.445605754852295
05-11-1993,5.53125,5.625,112800.0,5.625,5.5625,4.396210670471191
08-11-1993,5.46875,5.5625,207200.0,5.5625,5.46875,4.322114944458008
09-11-1993,5.1875,5.46875,542400.0,5.46875,5.21875,4.124531269073486
10-11-1993,5.21875,5.25,191200.0,5.28125,5.265625,4.161581039428711
11-11-1993,5.203125,5.28125,564800.0,5.40625,5.21875,4.124531269073486
12-11-1993,5.0625,5.203125,1202400.0,5.203125,5.203125,4.112185001373291
15-11-1993,5.140625,5.203125,675200.0,5.234375,5.140625,4.0627899169921875
16-11-1993,4.875,4.96875,827200.0,4.984375,4.9375,3.9022536277770996
17-11-1993,4.9375,5.0,1617600.0,5.203125,5.203125,4.112185001373291
18-11-1993,5.15625,5.203125,463200.0,5.359375,5.296875,4.186278820037842
19-11-1993,5.21875,5.25,85600.0,5.265625,5.265625,4.161581039428711
22-11-1993,5.078125,5.25,173600.0,5.25,5.078125,4.013391971588135
23-11-1993,5.078125,5.109375,697600.0,5.21875,5.09375,4.025744438171387
24-11-1993,5.109375,5.109375,556800.0,5.15625,5.15625,4.075138092041016
26-11-1993,5.03125,5.125,94400.0,5.125,5.03125,3.9763436317443848
29-11-1993,4.828125,4.96875,1270400.0,4.96875,4.828125,3.815810203552246
30-11-1993,4.78125,4.84375,457600.0,4.859375,4.828125,3.815810203552246
01-12-1993,4.828125,4.859375,316000.0,4.921875,4.859375,3.8405075073242188
02-12-1993,4.84375,4.84375,429600.0,4.90625,4.859375,3.8405075073242188
03-12-1993,4.875,4.875,142400.0,4.90625,4.875,3.852855920791626
06-12-1993,4.84375,4.875,308800.0,4.90625,4.890625,3.8652052879333496
07-12-1993,4.859375,4.875,528800.0,4.953125,4.90625,3.877556562423706
08-12-1993,4.84375,4.890625,89600.0,4.890625,4.859375,3.8405075073242188
09-12-1993,4.71875,4.859375,69600.0,4.859375,4.78125,3.7787630558013916
10-12-1993,4.796875,4.796875,271200.0,4.84375,4.828125,3.815810203552246
13-12-1993,4.71875,4.859375,102400.0,4.859375,4.765625,3.7664148807525635
14-12-1993,4.734375,4.796875,620800.0,4.8125,4.8125,3.803462266921997
15-12-1993,4.71875,4.765625,128000.0,4.765625,4.734375,3.741718292236328
16-12-1993,4.75,4.75,565600.0,4.84375,4.78125,3.7787630558013916
17-12-1993,4.734375,4.796875,200800.0,4.8125,4.75,3.754065990447998
20-12-1993,4.40625,4.71875,927200.0,4.71875,4.515625,3.5688319206237793
21-12-1993,4.265625,4.546875,880000.0,4.546875,4.4375,3.507089376449585
22-12-1993,4.40625,4.453125,676000.0,4.75,4.734375,3.741718292236328
23-12-1993,4.703125,4.703125,176000.0,4.796875,4.75,3.754065990447998
27-12-1993,4.6875,4.6875,1060000.0,4.890625,4.859375,3.8405075073242188
28-12-1993,4.8125,4.890625,629600.0,4.921875,4.8125,3.803462266921997
29-12-1993,4.828125,4.828125,648000.0,4.890625,4.859375,3.8405075073242188
30-12-1993,4.828125,4.84375,270400.0,4.859375,4.859375,3.8405075073242188
31-12-1993,4.828125,4.859375,112800.0,4.875,4.875,3.852855920791626
03-01-1994,4.828125,4.875,332000.0,4.875,4.875,3.852855920791626
04-01-1994,4.84375,4.84375,202400.0,4.890625,4.890625,3.8652052879333496
05-01-1994,4.96875,4.96875,800000.0,5.25,5.203125,4.112185001373291
06-01-1994,5.234375,5.234375,999200.0,5.484375,5.453125,4.309768199920654
07-01-1994,5.40625,5.46875,704800.0,5.46875,5.4375,4.29741907119751
10-01-1994,5.421875,5.421875,573600.0,5.640625,5.640625,4.464109420776367
11-01-1994,5.453125,5.59375,1028800.0,5.59375,5.5,4.352818489074707
12-01-1994,5.390625,5.5,296000.0,5.53125,5.40625,4.278621673583984
13-01-1994,5.3125,5.40625,10779200.0,5.421875,5.3125,4.204427719116211
14-01-1994,5.15625,5.28125,1295200.0,5.328125,5.15625,4.08076810836792
17-01-1994,5.21875,5.25,1098400.0,5.3125,5.296875,4.1920599937438965
18-01-1994,5.3125,5.3125,851200.0,5.4375,5.4375,4.303353309631348
19-01-1994,5.46875,5.46875,1249600.0,5.609375,5.515625,4.365185737609863
20-01-1994,5.359375,5.515625,487200.0,5.5625,5.359375,4.241525650024414
21-01-1994,5.34375,5.390625,354400.0,5.421875,5.375,4.253890514373779
24-01-1994,5.3125,5.390625,408800.0,5.40625,5.3125,4.204427719116211
25-01-1994,5.296875,5.3125,284000.0,5.328125,5.3125,4.204427719116211
26-01-1994,5.265625,5.3125,873600.0,5.40625,5.375,4.253890514373779
27-01-1994,5.375,5.375,1322400.0,5.5625,5.546875,4.38991641998291
28-01-1994,5.484375,5.5,303200.0,5.515625,5.5,4.352818489074707
31-01-1994,5.515625,5.53125,787200.0,5.671875,5.515625,4.365185737609863
01-02-1994,5.546875,5.546875,700800.0,5.625,5.609375,4.439379692077637
02-02-1994,5.578125,5.578125,999200.0,5.9375,5.765625,4.563038349151611
03-02-1994,5.734375,5.8125,155200.0,5.8125,5.75,4.550674915313721
04-02-1994,5.703125,5.78125,1171200.0,5.828125,5.71875,4.525943279266357
07-02-1994,5.609375,5.671875,363200.0,5.671875,5.625,4.451746463775635
08-02-1994,5.59375,5.625,355200.0,5.75,5.734375,4.538305759429932
09-02-1994,5.59375,5.734375,272800.0,5.734375,5.65625,4.476476669311523
10-02-1994,5.5,5.65625,944800.0,5.65625,5.5,4.352818489074707
11-02-1994,5.5,5.53125,212800.0,5.71875,5.6875,4.501211166381836
14-02-1994,5.40625,5.6875,335200.0,5.6875,5.5,4.352818489074707
15-02-1994,5.46875,5.46875,137600.0,5.53125,5.5,4.352818489074707
16-02-1994,5.375,5.46875,541600.0,5.484375,5.375,4.253890514373779
17-02-1994,5.34375,5.390625,538400.0,5.46875,5.34375,4.229159355163574
18-02-1994,5.328125,5.375,437600.0,5.390625,5.34375,4.229159355163574
22-02-1994,5.359375,5.375,83200.0,5.40625,5.375,4.253890514373779
23-02-1994,5.34375,5.34375,152000.0,5.4375,5.421875,4.290987968444824
24-02-1994,5.375,5.421875,108800.0,5.4375,5.4375,4.303353309631348
25-02-1994,5.46875,5.5,848800.0,5.5625,5.46875,4.328084945678711
28-02-1994,5.375,5.46875,57600.0,5.46875,5.375,4.253890514373779
01-03-1994,5.34375,5.40625,180000.0,5.40625,5.375,4.253890514373779
02-03-1994,5.28125,5.34375,310400.0,5.34375,5.3125,4.204427719116211
03-03-1994,5.296875,5.328125,92800.0,5.34375,5.3125,4.204427719116211
04-03-1994,5.296875,5.296875,196800.0,5.40625,5.390625,4.2662553787231445
07-03-1994,5.34375,5.40625,268800.0,5.40625,5.34375,4.229159355163574
08-03-1994,5.234375,5.3125,516800.0,5.328125,5.234375,4.142597675323486
09-03-1994,4.96875,5.203125,609600.0,5.203125,5.03125,3.981837511062622
10-03-1994,4.921875,5.015625,894400.0,5.046875,4.9375,3.907644271850586
11-03-1994,4.921875,4.953125,410400.0,5.03125,5.015625,3.9694724082946777
14-03-1994,5.015625,5.015625,308800.0,5.1875,5.171875,4.093132019042969
15-03-1994,5.21875,5.21875,446400.0,5.328125,5.28125,4.1796956062316895
16-03-1994,5.25,5.265625,458400.0,5.296875,5.28125,4.1796956062316895
17-03-1994,5.265625,5.265625,423200.0,5.515625,5.484375,4.340453147888184
18-03-1994,5.5,5.53125,879200.0,5.6875,5.6875,4.501211166381836
21-03-1994,5.671875,5.71875,813600.0,5.734375,5.71875,4.525943279266357
22-03-1994,5.6875,5.6875,1078400.0,5.8125,5.796875,4.587769985198975
23-03-1994,5.625,5.6875,722400.0,5.6875,5.671875,4.488842010498047
24-03-1994,5.5625,5.59375,674400.0,5.65625,5.625,4.451746463775635
25-03-1994,5.609375,5.609375,510400.0,5.671875,5.625,4.451746463775635
28-03-1994,5.4375,5.609375,1590400.0,5.609375,5.4375,4.303353309631348
29-03-1994,5.25,5.421875,617600.0,5.421875,5.25,4.154961109161377
30-03-1994,5.109375,5.234375,567200.0,5.328125,5.3125,4.204427719116211
31-03-1994,5.265625,5.3125,148800.0,5.34375,5.34375,4.229159355163574
04-04-1994,5.25,5.3125,445600.0,5.3125,5.265625,4.167328834533691
05-04-1994,5.234375,5.28125,940000.0,5.328125,5.25,4.154961109161377
06-04-1994,5.21875,5.3125,240000.0,5.375,5.375,4.253890514373779
07-04-1994,5.34375,5.375,574400.0,5.4375,5.34375,4.229159355163574
08-04-1994,5.3125,5.328125,169600.0,5.34375,5.34375,4.229159355163574
11-04-1994,5.265625,5.3125,698400.0,5.3125,5.296875,4.197951793670654
12-04-1994,5.3125,5.3125,1101600.0,5.40625,5.375,4.259867191314697
13-04-1994,5.359375,5.375,604000.0,5.4375,5.4375,4.309403896331787
14-04-1994,5.359375,5.390625,1280800.0,5.53125,5.53125,4.383701801300049
15-04-1994,5.46875,5.53125,826400.0,5.875,5.875,4.656134128570557
18-04-1994,5.6875,5.8125,1331200.0,5.8125,5.796875,4.594221591949463
19-04-1994,5.734375,5.78125,704000.0,5.8125,5.734375,4.5446858406066895
20-04-1994,5.703125,5.71875,727200.0,5.71875,5.71875,4.532302379608154
21-04-1994,5.703125,5.703125,480000.0,5.765625,5.75,4.557068824768066
22-04-1994,5.71875,5.734375,332000.0,5.796875,5.765625,4.56945276260376
25-04-1994,5.734375,5.765625,498400.0,5.9375,5.9375,4.705670356750488
26-04-1994,5.9375,5.9375,1096000.0,5.96875,5.96875,4.730439186096191
28-04-1994,5.9375,5.953125,856800.0,6.015625,5.953125,4.718053340911865
29-04-1994,5.890625,5.9375,535200.0,5.9375,5.9375,4.705670356750488
02-05-1994,5.890625,5.90625,652000.0,5.953125,5.953125,4.718053340911865
03-05-1994,5.859375,5.9375,560800.0,5.9375,5.875,4.656134128570557
04-05-1994,5.875,5.875,358400.0,5.9375,5.9375,4.705670356750488
05-05-1994,5.921875,5.96875,66400.0,5.96875,5.921875,4.6932878494262695
06-05-1994,5.921875,5.921875,343200.0,6.125,6.09375,4.829503536224365
09-05-1994,6.03125,6.109375,453600.0,6.109375,6.078125,4.817119598388672
10-05-1994,6.09375,6.140625,632800.0,6.140625,6.09375,4.829503536224365
11-05-1994,6.03125,6.09375,187200.0,6.109375,6.03125,4.779970169067383
12-05-1994,6.03125,6.046875,806400.0,6.15625,6.140625,4.866654872894287
13-05-1994,6.109375,6.109375,257600.0,6.125,6.125,4.854269504547119
16-05-1994,6.109375,6.140625,293600.0,6.140625,6.109375,4.841887474060059
17-05-1994,5.890625,6.09375,1044000.0,6.09375,5.953125,4.718053340911865
18-05-1994,5.90625,5.96875,1417600.0,5.984375,5.96875,4.730439186096191
19-05-1994,5.890625,5.984375,205600.0,5.984375,5.890625,4.668519020080566
20-05-1994,5.8125,5.90625,309600.0,5.90625,5.828125,4.618986129760742
23-05-1994,5.765625,5.796875,208800.0,5.8125,5.765625,4.56945276260376
24-05-1994,5.703125,5.75,287200.0,5.75,5.703125,4.5199198722839355
25-05-1994,5.65625,5.71875,179200.0,5.71875,5.65625,4.4827704429626465
26-05-1994,5.515625,5.59375,840800.0,5.625,5.546875,4.396087169647217
27-05-1994,5.53125,5.5625,70400.0,5.59375,5.578125,4.4208502769470215
31-05-1994,5.5,5.546875,752800.0,5.578125,5.5,4.358933925628662
01-06-1994,5.5,5.5,480800.0,5.546875,5.515625,4.371321678161621
02-06-1994,5.46875,5.5,600000.0,5.53125,5.46875,4.334169387817383
03-06-1994,5.34375,5.453125,136800.0,5.453125,5.421875,4.2970194816589355
06-06-1994,5.453125,5.5,132800.0,5.5,5.46875,4.334169387817383
07-06-1994,5.46875,5.46875,863200.0,5.578125,5.5625,4.408470630645752
08-06-1994,5.4375,5.5625,276800.0,5.5625,5.46875,4.334169387817383
09-06-1994,5.375,5.4375,304800.0,5.4375,5.375,4.259867191314697
10-06-1994,5.375,5.375,165600.0,5.578125,5.578125,4.4208502769470215
13-06-1994,5.578125,5.578125,736800.0,5.703125,5.6875,4.507535934448242
14-06-1994,5.703125,5.703125,476000.0,5.75,5.75,4.557068824768066
15-06-1994,5.71875,5.75,292000.0,5.78125,5.734375,4.5446858406066895
16-06-1994,5.71875,5.71875,132000.0,5.78125,5.78125,4.581836700439453
17-06-1994,5.75,5.75,384000.0,5.90625,5.90625,4.6809000968933105
20-06-1994,5.75,5.9375,174800.0,5.9375,5.84375,4.631370544433594
21-06-1994,5.78125,5.78125,166400.0,5.90625,5.90625,4.6809000968933105
22-06-1994,5.875,5.96875,52800.0,5.96875,5.90625,4.6809000968933105
23-06-1994,5.75,5.96875,197200.0,5.96875,5.75,4.557068824768066
24-06-1994,5.59375,5.75,143200.0,5.75,5.71875,4.532302379608154
27-06-1994,5.625,5.6875,136800.0,5.75,5.71875,4.532302379608154
28-06-1994,5.59375,5.65625,190800.0,5.71875,5.71875,4.532302379608154
29-06-1994,5.65625,5.71875,94800.0,5.75,5.75,4.557068824768066
30-06-1994,5.59375,5.6875,440400.0,5.75,5.75,4.557068824768066
01-07-1994,5.625,5.75,150400.0,5.75,5.65625,4.4827704429626465
05-07-1994,5.5,5.6875,72400.0,5.6875,5.5,4.358933925628662
06-07-1994,5.46875,5.5,182800.0,5.6875,5.6875,4.507535934448242
07-07-1994,5.59375,5.71875,36000.0,5.71875,5.59375,4.433238506317139
08-07-1994,5.5,5.5625,24000.0,5.59375,5.5,4.358933925628662
11-07-1994,5.5,5.53125,51600.0,5.5625,5.5625,4.414488315582275
12-07-1994,5.5,5.5625,98800.0,5.59375,5.5625,4.414488315582275
13-07-1994,5.40625,5.59375,277200.0,5.65625,5.5,4.3648858070373535
14-07-1994,5.4375,5.53125,72800.0,5.53125,5.4375,4.315288066864014
15-07-1994,5.34375,5.40625,68800.0,5.40625,5.375,4.265684604644775
18-07-1994,5.3125,5.4375,261600.0,5.46875,5.46875,4.340086936950684
19-07-1994,5.375,5.4375,143200.0,5.4375,5.375,4.265684604644775
20-07-1994,5.3125,5.40625,31600.0,5.40625,5.3125,4.21608829498291
21-07-1994,5.1875,5.1875,230800.0,5.34375,5.34375,4.240885257720947
22-07-1994,5.1875,5.3125,37600.0,5.3125,5.21875,4.1416826248168945
25-07-1994,5.03125,5.25,187200.0,5.25,5.03125,3.9928812980651855
26-07-1994,4.9375,5.0625,230000.0,5.0625,4.96875,3.9432802200317383
27-07-1994,4.90625,5.0,551200.0,5.03125,4.9375,3.918480634689331
28-07-1994,4.9375,4.9375,342800.0,5.0,5.0,3.968080997467041
29-07-1994,4.96875,5.0,209600.0,5.0,4.96875,3.9432802200317383
01-08-1994,4.9375,4.9375,620000.0,5.0,5.0,3.968080997467041
02-08-1994,4.9375,4.96875,216400.0,5.0,5.0,3.968080997467041
03-08-1994,4.90625,4.96875,430800.0,5.03125,5.0,3.968080997467041
04-08-1994,4.9375,4.96875,156400.0,5.0625,5.0,3.968080997467041
05-08-1994,4.78125,4.96875,233200.0,5.0,4.78125,3.794473886489868
08-08-1994,4.8125,4.84375,731600.0,4.90625,4.84375,3.8440792560577393
09-08-1994,4.78125,4.8125,1479200.0,5.0,5.0,3.968080997467041
10-08-1994,5.03125,5.0625,600000.0,5.125,5.0625,4.017680644989014
11-08-1994,4.96875,5.03125,326800.0,5.09375,4.96875,3.9432802200317383
12-08-1994,4.9375,4.96875,558400.0,5.03125,5.0,3.968080997467041
15-08-1994,4.96875,5.0,71600.0,5.0625,4.96875,3.9432802200317383
16-08-1994,4.9375,5.0,300800.0,5.0,4.9375,3.918480634689331
17-08-1994,4.90625,4.9375,148800.0,5.0,4.96875,3.9432802200317383
18-08-1994,4.90625,4.96875,228400.0,4.96875,4.9375,3.918480634689331
19-08-1994,4.90625,4.9375,330400.0,4.953125,4.90625,3.893679618835449
22-08-1994,4.8125,4.9375,137200.0,4.9375,4.8125,3.8192789554595947
23-08-1994,4.78125,4.875,459200.0,4.90625,4.84375,3.8440792560577393
24-08-1994,4.875,4.875,956000.0,5.03125,4.9375,3.918480634689331
25-08-1994,4.75,4.96875,773200.0,4.96875,4.78125,3.794473886489868
26-08-1994,4.65625,4.8125,1071600.0,4.875,4.8125,3.8192789554595947
29-08-1994,4.625,4.875,1677600.0,4.875,4.71875,3.744875907897949
30-08-1994,4.6875,4.71875,976800.0,4.8125,4.8125,3.8192789554595947
31-08-1994,4.75,4.8125,1103600.0,4.90625,4.8125,3.8192789554595947
01-09-1994,4.78125,4.78125,967600.0,4.875,4.84375,3.8440792560577393
02-09-1994,4.84375,4.90625,250400.0,4.9375,4.9375,3.918480634689331
06-09-1994,4.875,4.90625,397200.0,5.03125,5.03125,3.9928812980651855
07-09-1994,5.0625,5.0625,1347600.0,5.25,5.1875,4.116886138916016
08-09-1994,5.125,5.125,1925200.0,5.4375,5.4375,4.315288066864014
09-09-1994,5.125,5.375,1384800.0,5.375,5.125,4.0672807693481445
12-09-1994,5.125,5.1875,572800.0,5.21875,5.125,4.0672807693481445
13-09-1994,5.125,5.15625,136400.0,5.1875,5.15625,4.092084884643555
14-09-1994,5.125,5.125,378800.0,5.25,5.25,4.166483402252197
15-09-1994,5.21875,5.25,1040800.0,5.3125,5.25,4.166483402252197
16-09-1994,5.25,5.28125,429600.0,5.375,5.375,4.265684604644775
19-09-1994,5.25,5.375,374400.0,5.375,5.25,4.166483402252197
20-09-1994,5.0,5.1875,248400.0,5.1875,5.125,4.0672807693481445
21-09-1994,4.9375,5.125,303200.0,5.125,5.0,3.968080997467041
22-09-1994,5.0,5.0625,68000.0,5.0625,5.0,3.968080997467041
23-09-1994,5.0625,5.0625,456000.0,5.21875,5.1875,4.116886138916016
26-09-1994,5.15625,5.15625,168800.0,5.25,5.25,4.166483402252197
27-09-1994,5.15625,5.21875,271200.0,5.21875,5.1875,4.116886138916016
28-09-1994,5.15625,5.1875,45600.0,5.21875,5.15625,4.092084884643555
29-09-1994,5.125,5.1875,135200.0,5.1875,5.15625,4.092084884643555
30-09-1994,5.0625,5.1875,63600.0,5.1875,5.09375,4.042481899261475
03-10-1994,5.0625,5.09375,100000.0,5.125,5.0625,4.017680644989014
04-10-1994,4.96875,5.09375,256800.0,5.09375,4.96875,3.9432802200317383
05-10-1994,4.96875,4.96875,100400.0,5.03125,5.03125,3.9928812980651855
06-10-1994,5.03125,5.0625,187200.0,5.125,5.0625,4.017680644989014
07-10-1994,5.09375,5.09375,220000.0,5.3125,5.28125,4.197502613067627
10-10-1994,5.28125,5.28125,344000.0,5.375,5.3125,4.222343444824219
11-10-1994,5.3125,5.3125,328800.0,5.375,5.3125,4.222343444824219
12-10-1994,5.15625,5.25,155600.0,5.25,5.15625,4.098156452178955
13-10-1994,5.1875,5.21875,285600.0,5.28125,5.25,4.172665119171143
14-10-1994,5.1875,5.25,151200.0,5.25,5.25,4.172665119171143
17-10-1994,5.25,5.3125,88000.0,5.3125,5.25,4.172665119171143
18-10-1994,5.25,5.25,153200.0,5.375,5.375,4.2720136642456055
19-10-1994,5.34375,5.34375,236000.0,5.4375,5.34375,4.247177600860596
20-10-1994,5.21875,5.3125,174000.0,5.34375,5.25,4.172665119171143
21-10-1994,5.1875,5.1875,66800.0,5.25,5.21875,4.147827625274658
24-10-1994,5.1875,5.25,72800.0,5.34375,5.3125,4.222343444824219
25-10-1994,5.1875,5.3125,243200.0,5.34375,5.25,4.172665119171143
26-10-1994,5.21875,5.25,512800.0,5.40625,5.40625,4.29685115814209
27-10-1994,5.375,5.375,1548800.0,5.625,5.53125,4.3962016105651855
28-10-1994,5.46875,5.5,638000.0,5.6875,5.65625,4.495551586151123
31-10-1994,5.5,5.625,102000.0,5.625,5.53125,4.3962016105651855
01-11-1994,5.46875,5.53125,71200.0,5.5625,5.5625,4.4210381507873535
02-11-1994,5.4375,5.53125,349600.0,5.53125,5.46875,4.346526145935059
03-11-1994,5.46875,5.5,54000.0,5.5625,5.53125,4.3962016105651855
04-11-1994,5.46875,5.46875,237600.0,5.53125,5.46875,4.346526145935059
07-11-1994,5.4375,5.5,145600.0,5.5,5.4375,4.321690559387207
08-11-1994,5.375,5.40625,126800.0,5.4375,5.40625,4.29685115814209
09-11-1994,5.4375,5.4375,328400.0,5.46875,5.4375,4.321690559387207
10-11-1994,5.4375,5.4375,60800.0,5.46875,5.4375,4.321690559387207
11-11-1994,5.34375,5.4375,80800.0,5.46875,5.34375,4.247177600860596
14-11-1994,5.21875,5.3125,125600.0,5.3125,5.25,4.172665119171143
15-11-1994,5.21875,5.25,166400.0,5.28125,5.28125,4.197502613067627
16-11-1994,5.15625,5.21875,154800.0,5.25,5.15625,4.098156452178955
17-11-1994,4.90625,5.09375,990400.0,5.09375,4.96875,3.9491307735443115
18-11-1994,4.625,4.90625,1564800.0,4.90625,4.78125,3.8001036643981934
21-11-1994,4.71875,4.8125,789600.0,4.84375,4.75,3.7752699851989746
22-11-1994,4.625,4.6875,559600.0,4.71875,4.6875,3.725595235824585
23-11-1994,4.5,4.71875,952400.0,4.71875,4.59375,3.6510818004608154
25-11-1994,4.53125,4.5625,45600.0,4.59375,4.53125,3.6014084815979004
28-11-1994,4.46875,4.59375,1295600.0,4.59375,4.53125,3.6014084815979004
29-11-1994,4.46875,4.53125,1277200.0,4.625,4.59375,3.6510818004608154
30-11-1994,4.53125,4.625,410400.0,4.625,4.53125,3.6014084815979004
01-12-1994,4.5,4.53125,507600.0,4.65625,4.625,3.6759185791015625
02-12-1994,4.625,4.625,588000.0,4.6875,4.625,3.6759185791015625
05-12-1994,4.375,4.59375,1013600.0,4.65625,4.375,3.477221965789795
06-12-1994,4.375,4.375,664400.0,4.4375,4.375,3.477221965789795
07-12-1994,4.34375,4.375,218400.0,4.5625,4.5625,3.6262454986572266
08-12-1994,4.53125,4.53125,552800.0,4.8125,4.6875,3.725595235824585
09-12-1994,4.5625,4.625,588400.0,4.625,4.59375,3.6510818004608154
12-12-1994,4.625,4.625,519200.0,4.6875,4.65625,3.7007555961608887
13-12-1994,4.65625,4.65625,408000.0,4.78125,4.75,3.7752699851989746
14-12-1994,4.78125,4.78125,529200.0,4.96875,4.9375,3.9242942333221436
15-12-1994,4.8125,4.96875,116000.0,4.96875,4.84375,3.849782705307007
16-12-1994,4.8125,4.84375,312800.0,4.875,4.84375,3.849782705307007
19-12-1994,4.75,4.84375,426800.0,4.84375,4.8125,3.8249454498291016
20-12-1994,4.625,4.75,305200.0,4.8125,4.65625,3.7007555961608887
21-12-1994,4.59375,4.6875,634400.0,4.6875,4.625,3.6759185791015625
22-12-1994,4.53125,4.65625,284000.0,4.65625,4.53125,3.6014084815979004
23-12-1994,4.53125,4.5625,29600.0,4.59375,4.5625,3.6262454986572266
27-12-1994,4.4375,4.59375,209600.0,4.59375,4.5,3.576570510864258
28-12-1994,4.5,4.5,228800.0,4.59375,4.59375,3.6510818004608154
29-12-1994,4.65625,4.65625,221200.0,4.8125,4.71875,3.750432014465332
30-12-1994,4.6875,4.71875,150400.0,4.78125,4.6875,3.725595235824585
03-01-1995,4.65625,4.75,129600.0,4.78125,4.75,3.7752699851989746
04-01-1995,4.6875,4.75,68400.0,4.8125,4.71875,3.750432014465332
05-01-1995,4.59375,4.65625,260000.0,4.6875,4.65625,3.7007555961608887
06-01-1995,4.5,4.6875,404800.0,4.6875,4.5625,3.6262454986572266
09-01-1995,4.46875,4.53125,613600.0,4.5625,4.46875,3.5575826168060303
10-01-1995,4.3125,4.4375,289600.0,4.4375,4.3125,3.43319034576416
11-01-1995,4.3125,4.3125,124800.0,4.40625,4.40625,3.5078256130218506
12-01-1995,4.3125,4.375,374400.0,4.4375,4.3125,3.43319034576416
13-01-1995,4.28125,4.3125,66800.0,4.40625,4.375,3.4829468727111816
16-01-1995,4.28125,4.3125,480800.0,4.328125,4.3125,3.43319034576416
17-01-1995,4.3125,4.3125,437600.0,4.4375,4.40625,3.5078256130218506
18-01-1995,4.40625,4.40625,606000.0,4.59375,4.5625,3.6322169303894043
19-01-1995,4.5,4.5625,248000.0,4.5625,4.5,3.582460403442383
20-01-1995,4.5,4.53125,76400.0,4.53125,4.53125,3.6073367595672607
23-01-1995,4.375,4.46875,128800.0,4.5,4.375,3.4829468727111816
24-01-1995,4.375,4.375,345600.0,4.5625,4.53125,3.6073367595672607
25-01-1995,4.46875,4.53125,129600.0,4.53125,4.5,3.582460403442383
26-01-1995,4.5,4.5,145200.0,4.625,4.625,3.6819727420806885
27-01-1995,4.5,4.5625,512000.0,4.59375,4.53125,3.6073367595672607
30-01-1995,4.4375,4.53125,193200.0,4.53125,4.46875,3.5575826168060303
31-01-1995,4.4375,4.4375,186400.0,4.53125,4.4375,3.5327024459838867
01-02-1995,4.4375,4.4375,46000.0,4.5,4.46875,3.5575826168060303
02-02-1995,4.4375,4.46875,41600.0,4.5,4.46875,3.5575826168060303
03-02-1995,4.4375,4.5,243600.0,4.53125,4.5,3.582460403442383
06-02-1995,4.5625,4.625,651200.0,4.8125,4.75,3.781484842300415
07-02-1995,4.6875,4.8125,437200.0,4.8125,4.6875,3.7317285537719727
08-02-1995,4.71875,4.71875,549600.0,4.8125,4.75,3.781484842300415
09-02-1995,4.6875,4.78125,278800.0,4.78125,4.6875,3.7317285537719727
10-02-1995,4.6875,4.71875,243600.0,4.78125,4.78125,3.806364059448242
13-02-1995,4.8125,4.8125,264800.0,4.90625,4.84375,3.8561201095581055
14-02-1995,4.75,4.84375,137600.0,4.84375,4.84375,3.8561201095581055
15-02-1995,4.8125,4.84375,277200.0,4.96875,4.9375,3.9307539463043213
16-02-1995,4.9375,4.9375,477600.0,5.03125,5.0,3.9805104732513428
17-02-1995,5.0,5.0,261200.0,5.125,5.125,4.080024242401123
21-02-1995,5.09375,5.125,92400.0,5.125,5.125,4.080024242401123
22-02-1995,5.0625,5.09375,214400.0,5.125,5.09375,4.055146217346191
23-02-1995,5.0625,5.125,348800.0,5.15625,5.15625,4.104904651641846
24-02-1995,5.09375,5.15625,281200.0,5.15625,5.125,4.080024242401123
27-02-1995,5.09375,5.125,381600.0,5.15625,5.15625,4.104904651641846
28-02-1995,5.15625,5.1875,322400.0,5.21875,5.21875,4.154656410217285
01-03-1995,5.15625,5.1875,70800.0,5.1875,5.15625,4.104904651641846
02-03-1995,5.15625,5.15625,218800.0,5.25,5.25,4.179535388946533
03-03-1995,5.21875,5.25,259600.0,5.28125,5.25,4.179535388946533
06-03-1995,5.15625,5.25,236400.0,5.25,5.21875,4.154656410217285
07-03-1995,5.125,5.25,405200.0,5.25,5.125,4.080024242401123
08-03-1995,5.125,5.15625,442800.0,5.28125,5.21875,4.154656410217285
09-03-1995,5.1875,5.25,179600.0,5.28125,5.28125,4.204413890838623
10-03-1995,5.15625,5.25,170400.0,5.25,5.15625,4.104904651641846
13-03-1995,5.15625,5.1875,100800.0,5.21875,5.1875,4.1297807693481445
14-03-1995,5.1875,5.1875,101600.0,5.25,5.25,4.179535388946533
15-03-1995,5.25,5.25,317200.0,5.34375,5.3125,4.229292869567871
16-03-1995,5.28125,5.28125,635600.0,5.5,5.4375,4.3288044929504395
17-03-1995,5.3125,5.40625,492800.0,5.5,5.4375,4.3288044929504395
20-03-1995,5.28125,5.40625,426800.0,5.5,5.34375,4.254171848297119
21-03-1995,5.25,5.3125,159600.0,5.3125,5.25,4.179535388946533
22-03-1995,5.28125,5.3125,349200.0,5.375,5.3125,4.229292869567871
23-03-1995,5.3125,5.34375,279600.0,5.4375,5.40625,4.303925037384033
24-03-1995,5.28125,5.40625,696000.0,5.40625,5.3125,4.229292869567871
27-03-1995,5.3125,5.34375,314400.0,5.5,5.5,4.378561496734619
28-03-1995,5.5,5.5,268800.0,5.5625,5.5625,4.428317070007324
29-03-1995,5.5625,5.5625,458000.0,5.6875,5.625,4.478075981140137
30-03-1995,5.65625,5.65625,414400.0,5.875,5.875,4.677100658416748
31-03-1995,5.90625,5.90625,1336800.0,6.21875,6.15625,4.901004314422607
03-04-1995,5.96875,6.15625,1253600.0,6.15625,5.96875,4.751735687255859
04-04-1995,5.84375,5.96875,666000.0,5.96875,5.875,4.677100658416748
05-04-1995,5.84375,5.875,1044800.0,5.96875,5.90625,4.701979160308838
06-04-1995,5.71875,5.875,704000.0,5.875,5.71875,4.552709102630615
07-04-1995,5.625,5.6875,227600.0,5.75,5.625,4.483956813812256
10-04-1995,5.59375,5.59375,525600.0,5.75,5.75,4.608177661895752
11-04-1995,5.6875,5.78125,668400.0,5.78125,5.75,4.608177661895752
12-04-1995,5.71875,5.75,110400.0,5.78125,5.78125,4.63322114944458
13-04-1995,5.75,5.8125,191600.0,5.875,5.75,4.608177661895752
17-04-1995,5.75,5.78125,133200.0,5.8125,5.75,4.608177661895752
18-04-1995,5.5625,5.75,805200.0,5.75,5.5625,4.45790958404541
19-04-1995,5.53125,5.59375,182400.0,5.625,5.625,4.507996082305908
20-04-1995,5.625,5.625,356000.0,5.78125,5.78125,4.63322114944458
21-04-1995,5.8125,5.8125,1894000.0,6.1875,6.09375,4.883667469024658
24-04-1995,5.9375,6.125,940800.0,6.1875,5.9375,4.758443832397461
25-04-1995,5.84375,5.875,103200.0,5.90625,5.84375,4.683307647705078
26-04-1995,5.71875,5.875,144000.0,5.875,5.78125,4.63322114944458
27-04-1995,5.65625,5.78125,390800.0,5.78125,5.65625,4.533041954040527
28-04-1995,5.6875,5.71875,266400.0,5.71875,5.71875,4.583132266998291
01-05-1995,5.71875,5.75,529200.0,5.78125,5.75,4.608177661895752
02-05-1995,5.6875,5.75,406400.0,5.75,5.75,4.608177661895752
03-05-1995,5.75,5.75,199600.0,5.8125,5.75,4.608177661895752
04-05-1995,5.6875,5.75,215200.0,5.75,5.71875,4.583132266998291
05-05-1995,5.65625,5.6875,289200.0,5.75,5.65625,4.533041954040527
08-05-1995,5.625,5.65625,224000.0,5.6875,5.65625,4.533041954040527
09-05-1995,5.625,5.65625,509200.0,5.8125,5.8125,4.658265113830566
10-05-1995,5.78125,5.78125,706400.0,5.9375,5.9375,4.758443832397461
11-05-1995,5.78125,5.90625,222000.0,5.90625,5.8125,4.658265113830566
12-05-1995,5.75,5.8125,38800.0,5.8125,5.78125,4.63322114944458
15-05-1995,5.78125,5.8125,279600.0,5.875,5.875,4.708352565765381
16-05-1995,5.84375,5.90625,43200.0,5.9375,5.84375,4.683307647705078
17-05-1995,5.78125,5.84375,295600.0,5.84375,5.8125,4.658265113830566
18-05-1995,5.65625,5.8125,107600.0,5.8125,5.71875,4.583132266998291
19-05-1995,5.71875,5.71875,130800.0,5.75,5.75,4.608177661895752
22-05-1995,5.6875,5.75,64000.0,5.75,5.6875,4.55808687210083
23-05-1995,5.71875,5.71875,340800.0,5.90625,5.875,4.708352565765381
24-05-1995,5.84375,5.875,449200.0,6.09375,6.09375,4.883667469024658
25-05-1995,6.0,6.03125,798400.0,6.125,6.0625,4.858620643615723
26-05-1995,5.9375,6.0625,177600.0,6.0625,5.96875,4.78348445892334
30-05-1995,5.9375,5.9375,303600.0,6.03125,6.03125,4.833576202392578
31-05-1995,6.0,6.0625,254800.0,6.0625,6.0625,4.858620643615723
01-06-1995,6.03125,6.0625,26000.0,6.09375,6.03125,4.833576202392578
02-06-1995,5.9375,6.0625,201600.0,6.09375,5.96875,4.78348445892334
05-06-1995,5.96875,6.0,137600.0,6.0,6.0,4.808530807495117
06-06-1995,5.875,6.0,53200.0,6.0,5.90625,4.733397483825684
07-06-1995,5.8125,5.9375,307600.0,5.9375,5.8125,4.658265113830566
08-06-1995,5.75,5.8125,242000.0,5.8125,5.78125,4.63322114944458
09-06-1995,5.75,5.78125,652000.0,5.8125,5.78125,4.63322114944458
12-06-1995,5.71875,5.78125,188000.0,5.78125,5.75,4.608177661895752
13-06-1995,5.6875,5.6875,119200.0,5.71875,5.71875,4.583132266998291
14-06-1995,5.71875,5.78125,300400.0,5.78125,5.78125,4.63322114944458
15-06-1995,5.71875,5.75,186800.0,5.8125,5.8125,4.658265113830566
16-06-1995,5.6875,5.8125,190000.0,5.8125,5.6875,4.55808687210083
19-06-1995,5.59375,5.65625,399600.0,5.71875,5.6875,4.55808687210083
20-06-1995,5.34375,5.71875,788000.0,5.71875,5.34375,4.282600402832031
21-06-1995,5.1875,5.34375,494400.0,5.34375,5.21875,4.182419776916504
22-06-1995,5.0625,5.21875,762800.0,5.21875,5.15625,4.132329940795898
23-06-1995,5.1875,5.1875,2558400.0,5.34375,5.3125,4.257554054260254
26-06-1995,5.25,5.28125,352400.0,5.375,5.34375,4.282600402832031
27-06-1995,5.3125,5.3125,496800.0,5.4375,5.40625,4.332685947418213
28-06-1995,5.21875,5.375,1011200.0,5.375,5.25,4.207464694976807
29-06-1995,5.1875,5.25,250400.0,5.25,5.1875,4.157376766204834
30-06-1995,5.21875,5.21875,653600.0,5.4375,5.4375,4.35773229598999
03-07-1995,5.34375,5.40625,317600.0,5.46875,5.46875,4.382776260375977
05-07-1995,5.28125,5.4375,124000.0,5.4375,5.28125,4.232508659362793
06-07-1995,5.21875,5.25,680800.0,5.28125,5.25,4.207464694976807
07-07-1995,5.21875,5.25,272400.0,5.25,5.25,4.231645584106445
10-07-1995,5.125,5.28125,638400.0,5.3125,5.125,4.130892276763916
11-07-1995,5.0,5.125,582000.0,5.28125,5.15625,4.156079292297363
12-07-1995,5.1875,5.1875,335600.0,5.28125,5.25,4.237808704376221
13-07-1995,5.21875,5.375,817600.0,5.4375,5.21875,4.212582588195801
14-07-1995,5.15625,5.25,286000.0,5.28125,5.1875,4.187358856201172
17-07-1995,5.15625,5.1875,460400.0,5.25,5.21875,4.212582588195801
18-07-1995,5.21875,5.21875,77600.0,5.28125,5.28125,4.263033866882324
19-07-1995,5.1875,5.25,132000.0,5.28125,5.25,4.237808704376221
20-07-1995,5.25,5.25,379200.0,5.375,5.28125,4.263033866882324
21-07-1995,5.21875,5.28125,248000.0,5.375,5.34375,4.313485145568848
24-07-1995,5.3125,5.3125,176400.0,5.40625,5.375,4.338710784912109
25-07-1995,5.40625,5.40625,344000.0,5.46875,5.4375,4.389160633087158
26-07-1995,5.34375,5.40625,244000.0,5.40625,5.34375,4.313485145568848
27-07-1995,5.21875,5.28125,758000.0,5.375,5.28125,4.263033866882324
28-07-1995,5.25,5.3125,111600.0,5.375,5.375,4.338710784912109
31-07-1995,5.34375,5.34375,217200.0,5.4375,5.40625,4.363935470581055
01-08-1995,5.1875,5.375,532800.0,5.375,5.21875,4.212582588195801
02-08-1995,5.1875,5.21875,302000.0,5.25,5.21875,4.212582588195801
03-08-1995,5.125,5.1875,552400.0,5.34375,5.34375,4.313485145568848
04-08-1995,5.28125,5.34375,558800.0,5.34375,5.34375,4.313485145568848
07-08-1995,5.34375,5.375,101600.0,5.40625,5.375,4.338710784912109
08-08-1995,5.34375,5.40625,305200.0,5.4375,5.34375,4.313485145568848
09-08-1995,5.3125,5.40625,703200.0,5.40625,5.3125,4.288260459899902
10-08-1995,5.1875,5.3125,166000.0,5.34375,5.1875,4.187358856201172
11-08-1995,5.15625,5.15625,349600.0,5.3125,5.3125,4.288260459899902
14-08-1995,5.25,5.34375,134400.0,5.34375,5.25,4.237808704376221
15-08-1995,5.25,5.3125,108800.0,5.34375,5.25,4.237808704376221
16-08-1995,5.125,5.21875,242000.0,5.21875,5.21875,4.212582588195801
17-08-1995,5.1875,5.1875,371600.0,5.3125,5.28125,4.263033866882324
18-08-1995,5.28125,5.28125,542400.0,5.5,5.40625,4.363935470581055
21-08-1995,5.40625,5.46875,575600.0,5.5,5.40625,4.363935470581055
22-08-1995,5.4375,5.4375,362400.0,5.53125,5.53125,4.4648356437683105
23-08-1995,5.5625,5.5625,317600.0,5.71875,5.625,4.5405097007751465
24-08-1995,5.46875,5.59375,2007200.0,5.625,5.5,4.4396071434021
25-08-1995,5.5,5.5,160000.0,5.53125,5.5,4.4396071434021
28-08-1995,5.46875,5.5,280000.0,5.5625,5.53125,4.4648356437683105
29-08-1995,5.5,5.53125,56400.0,5.5625,5.53125,4.4648356437683105
30-08-1995,5.625,5.625,290400.0,5.65625,5.65625,4.565735340118408
31-08-1995,5.6875,5.6875,116800.0,5.84375,5.8125,4.691860675811768
01-09-1995,5.84375,5.84375,431200.0,5.96875,5.96875,4.8179850578308105
05-09-1995,5.90625,5.96875,545200.0,6.03125,6.03125,4.868436336517334
06-09-1995,5.90625,5.96875,415600.0,6.0,6.0,4.843211650848389
07-09-1995,5.78125,6.0,284000.0,6.03125,6.03125,4.868436336517334
08-09-1995,5.9375,6.03125,248000.0,6.09375,5.9375,4.792761325836182
11-09-1995,5.9375,5.96875,230800.0,6.03125,6.03125,4.868436336517334
12-09-1995,5.90625,6.0,312400.0,6.15625,6.15625,4.969337463378906
13-09-1995,6.03125,6.125,547600.0,6.125,6.0625,4.893660545349121
14-09-1995,5.9375,6.03125,348000.0,6.09375,6.09375,4.918886661529541
15-09-1995,6.0625,6.0625,221200.0,6.1875,6.1875,4.994561672210693
18-09-1995,6.125,6.15625,490000.0,6.34375,6.21875,5.0197858810424805
19-09-1995,6.0,6.15625,504800.0,6.1875,6.15625,4.969337463378906
20-09-1995,6.0,6.125,284800.0,6.125,6.0,4.843211650848389
21-09-1995,5.9375,6.0625,451200.0,6.0625,6.03125,4.868436336517334
22-09-1995,5.78125,6.03125,143600.0,6.03125,5.875,4.742309093475342
25-09-1995,5.75,5.84375,183200.0,5.84375,5.78125,4.666637420654297
26-09-1995,5.65625,5.78125,232000.0,5.78125,5.65625,4.565735340118408
27-09-1995,5.625,5.6875,229200.0,5.75,5.75,4.641411304473877
28-09-1995,5.625,5.8125,263600.0,5.96875,5.625,4.5405097007751465
29-09-1995,5.4375,5.59375,635600.0,5.59375,5.4375,4.389160633087158
02-10-1995,5.4375,5.46875,548400.0,5.6875,5.59375,4.515286922454834
03-10-1995,5.5625,5.5625,304400.0,5.6875,5.65625,4.565735340118408
04-10-1995,5.5625,5.625,230800.0,5.65625,5.65625,4.565735340118408
05-10-1995,5.5,5.625,76800.0,5.625,5.53125,4.4648356437683105
06-10-1995,5.5,5.5,259200.0,5.5625,5.5625,4.490059852600098
09-10-1995,5.5,5.59375,48000.0,5.59375,5.5,4.4396071434021
10-10-1995,5.375,5.46875,109600.0,5.46875,5.375,4.338710784912109
11-10-1995,5.34375,5.375,166000.0,5.40625,5.34375,4.3376946449279785
12-10-1995,5.34375,5.375,620000.0,5.5625,5.5,4.470801830291748
13-10-1995,5.5,5.5,227200.0,5.59375,5.53125,4.4962053298950195
16-10-1995,5.40625,5.53125,188800.0,5.53125,5.46875,4.445400714874268
17-10-1995,5.40625,5.4375,398400.0,5.5,5.5,4.470801830291748
18-10-1995,5.25,5.4375,1966400.0,5.46875,5.25,4.267585754394531
19-10-1995,5.21875,5.21875,1503600.0,5.3125,5.21875,4.242181777954102
20-10-1995,5.125,5.25,333600.0,5.25,5.125,4.165975570678711
23-10-1995,5.0,5.15625,608000.0,5.15625,5.0,4.064364433288574
24-10-1995,4.90625,5.0,1186800.0,5.0,4.9375,4.013558387756348
25-10-1995,4.71875,4.9375,658400.0,4.9375,4.71875,3.8357458114624023
26-10-1995,4.6875,4.75,439600.0,4.8125,4.71875,3.8357458114624023
27-10-1995,4.71875,4.71875,352000.0,4.875,4.875,3.962759017944336
30-10-1995,4.9375,4.9375,646800.0,5.0,4.96875,4.038964748382568
31-10-1995,4.96875,5.0,314800.0,5.03125,5.0,4.064364433288574
01-11-1995,5.0,5.0,390800.0,5.03125,5.0,4.064364433288574
02-11-1995,4.9375,4.96875,42800.0,5.0,4.9375,4.013558387756348
03-11-1995,4.875,4.875,165600.0,4.96875,4.96875,4.038964748382568
06-11-1995,4.90625,4.96875,63600.0,4.96875,4.90625,3.988159418106079
07-11-1995,4.9375,4.9375,476400.0,5.03125,5.03125,4.089766979217529
08-11-1995,4.875,4.96875,907200.0,5.0,5.0,4.064364433288574
09-11-1995,5.03125,5.09375,1176400.0,5.15625,5.03125,4.089766979217529
10-11-1995,4.90625,5.03125,550000.0,5.03125,4.90625,3.988159418106079
13-11-1995,4.9375,4.96875,446800.0,5.09375,5.09375,4.140573024749756
14-11-1995,4.9375,5.03125,1045600.0,5.0625,4.96875,4.038964748382568
15-11-1995,4.96875,4.96875,228000.0,5.03125,5.0,4.064364433288574
16-11-1995,5.03125,5.03125,1046400.0,5.4375,5.375,4.369192600250244
17-11-1995,5.375,5.40625,906800.0,5.40625,5.40625,4.394596099853516
20-11-1995,5.1875,5.40625,585600.0,5.40625,5.1875,4.216777801513672
21-11-1995,5.1875,5.21875,363200.0,5.375,5.34375,4.343790054321289
22-11-1995,5.34375,5.375,432800.0,5.40625,5.40625,4.394596099853516
24-11-1995,5.3125,5.40625,229200.0,5.40625,5.3125,4.318390846252441
27-11-1995,5.125,5.21875,851200.0,5.21875,5.1875,4.216777801513672
28-11-1995,5.1875,5.1875,315200.0,5.28125,5.25,4.267585754394531
29-11-1995,5.21875,5.28125,28800.0,5.28125,5.21875,4.242181777954102
30-11-1995,5.1875,5.28125,311200.0,5.28125,5.25,4.267585754394531
01-12-1995,5.25,5.25,308400.0,5.34375,5.28125,4.29298734664917
04-12-1995,5.125,5.3125,1056000.0,5.3125,5.3125,4.318390846252441
05-12-1995,5.3125,5.3125,461200.0,5.375,5.375,4.369192600250244
06-12-1995,5.40625,5.40625,685200.0,5.4375,5.4375,4.4200005531311035
07-12-1995,5.4375,5.4375,720400.0,5.5,5.5,4.470801830291748
08-12-1995,5.4375,5.46875,18838800.0,5.65625,5.65625,4.597814083099365
11-12-1995,5.71875,5.8125,5631200.0,5.875,5.875,4.775630474090576
12-12-1995,5.8125,5.875,2874000.0,5.90625,5.875,4.775630474090576
13-12-1995,5.84375,5.875,3176800.0,6.09375,6.0,4.877241134643555
14-12-1995,5.90625,6.03125,2280000.0,6.09375,5.90625,4.801033020019531
15-12-1995,5.875,6.1875,1721200.0,6.21875,6.0,4.877241134643555
18-12-1995,5.8125,5.9375,974000.0,5.96875,5.96875,4.851835250854492
19-12-1995,5.875,5.96875,876000.0,6.0625,6.0625,4.928043842315674
20-12-1995,6.03125,6.0625,2001200.0,6.21875,6.03125,4.902641296386719
21-12-1995,6.0,6.03125,1896800.0,6.125,6.03125,4.902641296386719
22-12-1995,5.9375,6.09375,1115600.0,6.15625,6.03125,4.902641296386719
26-12-1995,6.03125,6.09375,490800.0,6.09375,6.03125,4.902641296386719
27-12-1995,5.9375,6.03125,582000.0,6.03125,5.9375,4.826433181762695
28-12-1995,5.90625,5.90625,1150800.0,6.15625,6.15625,5.0042500495910645
29-12-1995,5.9375,6.1875,677200.0,6.1875,6.0,4.877241134643555
02-01-1996,6.03125,6.0625,579600.0,6.125,6.09375,4.953446865081787
03-01-1996,5.875,6.125,1148000.0,6.125,5.96875,4.851835250854492
04-01-1996,5.9375,5.96875,1644000.0,6.0625,5.96875,4.851835250854492
05-01-1996,5.9375,5.9375,680800.0,6.09375,6.0625,4.928043842315674
08-01-1996,6.0625,6.0625,779200.0,6.125,6.125,4.978847980499268
09-01-1996,5.9375,6.15625,948400.0,6.15625,6.0,4.877241134643555
10-01-1996,5.84375,6.0,516400.0,6.03125,5.96875,4.851835250854492
11-01-1996,5.6875,5.8125,1618400.0,5.8125,5.78125,4.705333709716797
12-01-1996,5.75,5.75,555200.0,5.8125,5.8125,4.730771064758301
15-01-1996,5.75,5.875,1159200.0,5.875,5.75,4.679900169372559
16-01-1996,5.71875,5.75,1683200.0,5.8125,5.75,4.679900169372559
17-01-1996,5.59375,5.75,2281600.0,5.78125,5.75,4.679900169372559
18-01-1996,5.71875,5.75,504000.0,5.78125,5.78125,4.705333709716797
19-01-1996,5.75,5.8125,803200.0,5.84375,5.75,4.679900169372559
22-01-1996,5.78125,5.78125,545600.0,5.875,5.875,4.781639575958252
23-01-1996,5.78125,5.84375,426400.0,5.90625,5.78125,4.705333709716797
24-01-1996,5.78125,5.8125,539600.0,5.96875,5.875,4.781639575958252
25-01-1996,5.875,5.875,693600.0,5.96875,5.9375,4.832507610321045
26-01-1996,5.875,5.90625,1880000.0,5.90625,5.875,4.781639575958252
29-01-1996,5.875,5.90625,1636800.0,6.0,6.0,4.883375644683838
30-01-1996,5.96875,6.0,970800.0,6.03125,6.03125,4.908810138702393
31-01-1996,5.96875,6.03125,650000.0,6.125,6.09375,4.959678649902344
01-02-1996,6.125,6.125,2182400.0,6.3125,6.21875,5.061413288116455
02-02-1996,6.125,6.15625,1204000.0,6.25,6.15625,5.010546684265137
05-02-1996,6.0625,6.09375,923200.0,6.15625,6.09375,4.959678649902344
06-02-1996,6.03125,6.09375,938400.0,6.125,6.03125,4.908810138702393
07-02-1996,6.0625,6.09375,838800.0,6.15625,6.125,4.985113620758057
08-02-1996,6.125,6.125,705600.0,6.25,6.1875,5.035980224609375
09-02-1996,6.125,6.1875,1770400.0,6.28125,6.25,5.086850643157959
12-02-1996,6.15625,6.25,4923200.0,6.65625,6.53125,5.31575870513916
13-02-1996,6.25,6.59375,3442800.0,6.59375,6.34375,5.163153171539307
14-02-1996,6.375,6.375,1570000.0,6.625,6.5625,5.341192722320557
15-02-1996,6.53125,6.53125,1637600.0,6.9375,6.90625,5.620967388153076
16-02-1996,6.65625,7.125,2182000.0,7.125,6.75,5.493797779083252
20-02-1996,6.5625,6.625,421200.0,6.71875,6.625,5.392062187194824
21-02-1996,6.53125,6.5625,1553600.0,6.71875,6.71875,5.468362331390381
22-02-1996,6.59375,6.6875,1300800.0,6.75,6.6875,5.442928791046143
23-02-1996,6.5625,6.65625,660000.0,6.75,6.71875,5.468362331390381
26-02-1996,6.5625,6.625,556400.0,6.65625,6.59375,5.366626262664795
27-02-1996,6.5,6.53125,532800.0,6.625,6.59375,5.366626262664795
28-02-1996,6.40625,6.59375,2225600.0,6.71875,6.40625,5.214019298553467
29-02-1996,6.1875,6.4375,956000.0,6.4375,6.25,5.086850643157959
01-03-1996,6.25,6.25,402800.0,6.34375,6.25,5.086850643157959
04-03-1996,6.1875,6.25,809200.0,6.34375,6.3125,5.137720108032227
05-03-1996,6.15625,6.25,574000.0,6.25,6.25,5.086850643157959
06-03-1996,6.1875,6.21875,830000.0,6.40625,6.40625,5.214019298553467
07-03-1996,6.3125,6.375,1132000.0,6.40625,6.375,5.1885881423950195
08-03-1996,6.1875,6.1875,278400.0,6.28125,6.21875,5.061413288116455
11-03-1996,6.09375,6.1875,1366400.0,6.1875,6.15625,5.010546684265137
12-03-1996,6.09375,6.125,1108400.0,6.15625,6.125,4.985113620758057
13-03-1996,6.125,6.125,1038800.0,6.1875,6.1875,5.035980224609375
14-03-1996,6.25,6.25,2724800.0,6.40625,6.3125,5.137720108032227
15-03-1996,6.0,6.25,1051600.0,6.25,6.0625,4.9342427253723145
18-03-1996,6.0625,6.09375,4547200.0,6.375,6.375,5.1885881423950195
19-03-1996,6.34375,6.375,473600.0,6.4375,6.34375,5.163153171539307
20-03-1996,6.1875,6.375,223600.0,6.375,6.1875,5.035980224609375
21-03-1996,6.125,6.1875,936800.0,6.28125,6.125,4.985113620758057
22-03-1996,6.09375,6.15625,1019600.0,6.1875,6.09375,4.959678649902344
25-03-1996,6.0625,6.0625,907200.0,6.28125,6.28125,5.112285137176514
26-03-1996,6.25,6.28125,216800.0,6.3125,6.3125,5.137720108032227
27-03-1996,6.40625,6.5,1842000.0,6.59375,6.53125,5.31575870513916
28-03-1996,6.53125,6.53125,1270000.0,6.65625,6.65625,5.417495250701904
29-03-1996,6.5625,6.59375,1343600.0,6.625,6.59375,5.366626262664795
01-04-1996,6.5625,6.59375,752800.0,6.6875,6.6875,5.442928791046143
02-04-1996,6.65625,6.71875,1116400.0,6.875,6.84375,5.570098400115967
03-04-1996,6.71875,6.78125,1519600.0,6.96875,6.9375,5.646403789520264
04-04-1996,6.75,6.9375,796800.0,6.9375,6.875,5.595537185668945
08-04-1996,6.625,6.84375,1262800.0,6.84375,6.8125,5.544665336608887
09-04-1996,6.8125,6.8125,923200.0,6.90625,6.875,5.595537185668945
10-04-1996,6.78125,6.8125,1358000.0,6.96875,6.9375,5.646403789520264
11-04-1996,6.84375,6.875,932000.0,6.9375,6.875,5.601592063903809
12-04-1996,6.59375,6.875,1120000.0,6.875,6.65625,5.4233574867248535
15-04-1996,6.5625,6.59375,948000.0,6.78125,6.75,5.499744415283203
16-04-1996,6.6875,6.78125,846000.0,6.78125,6.75,5.499744415283203
17-04-1996,6.65625,6.75,1494800.0,6.75,6.6875,5.448820114135742
18-04-1996,6.5,6.6875,1113200.0,6.6875,6.53125,5.321512222290039
19-04-1996,6.5,6.5,884400.0,6.6875,6.65625,5.4233574867248535
22-04-1996,6.65625,6.65625,2457600.0,6.90625,6.8125,5.550669193267822
23-04-1996,6.78125,6.9375,1053200.0,7.0,6.90625,5.627050876617432
24-04-1996,6.90625,6.90625,1069200.0,7.15625,7.03125,5.728898048400879
25-04-1996,6.9375,6.96875,536800.0,7.0,6.9375,5.6525139808654785
26-04-1996,6.78125,6.875,486400.0,6.9375,6.78125,5.525204658508301
29-04-1996,6.71875,6.71875,705200.0,6.875,6.78125,5.525204658508301
30-04-1996,6.59375,6.8125,779600.0,6.875,6.625,5.397897243499756
01-05-1996,6.5,6.625,808400.0,6.75,6.5,5.296051025390625
02-05-1996,6.46875,6.5625,373600.0,6.59375,6.5625,5.346972465515137
03-05-1996,6.53125,6.625,680000.0,6.625,6.625,5.397897243499756
06-05-1996,6.5625,6.59375,504400.0,6.65625,6.5625,5.346972465515137
07-05-1996,6.125,6.625,1395600.0,6.65625,6.21875,5.066892623901367
08-05-1996,6.1875,6.25,620400.0,6.34375,6.25,5.092354774475098
09-05-1996,6.25,6.25,332000.0,6.375,6.375,5.1942033767700195
10-05-1996,6.25,6.375,818400.0,6.40625,6.3125,5.143280506134033
13-05-1996,6.21875,6.25,796000.0,6.3125,6.25,5.092354774475098
14-05-1996,6.15625,6.25,1208800.0,6.28125,6.15625,5.015968322753906
15-05-1996,6.09375,6.1875,2372400.0,6.3125,6.3125,5.143280506134033
16-05-1996,6.25,6.34375,379600.0,6.34375,6.28125,5.117817401885986
17-05-1996,6.1875,6.25,1017600.0,6.28125,6.25,5.092354774475098
20-05-1996,6.25,6.25,425600.0,6.375,6.34375,5.168740272521973
21-05-1996,6.3125,6.3125,2660400.0,6.46875,6.4375,5.245125770568848
22-05-1996,6.4375,6.4375,552000.0,6.5,6.5,5.296051025390625
23-05-1996,6.53125,6.5625,1154800.0,6.75,6.5625,5.346972465515137
24-05-1996,6.4375,6.5,1701200.0,6.53125,6.5,5.296051025390625
28-05-1996,6.359375,6.53125,554000.0,6.53125,6.4375,5.245125770568848
29-05-1996,6.3125,6.40625,613600.0,6.40625,6.375,5.1942033767700195
30-05-1996,6.25,6.375,604000.0,6.375,6.3125,5.143280506134033
31-05-1996,6.25,6.34375,493200.0,6.375,6.3125,5.143280506134033
03-06-1996,6.28125,6.3125,211200.0,6.3125,6.3125,5.143280506134033
04-06-1996,6.375,6.40625,654800.0,6.46875,6.375,5.1942033767700195
05-06-1996,6.40625,6.4375,679600.0,6.46875,6.4375,5.245125770568848
06-06-1996,6.25,6.4375,278800.0,6.4375,6.28125,5.117817401885986
07-06-1996,6.15625,6.21875,702800.0,6.34375,6.34375,5.168740272521973
10-06-1996,6.3125,6.34375,241200.0,6.34375,6.3125,5.143280506134033
11-06-1996,6.28125,6.3125,761600.0,6.375,6.3125,5.143280506134033
12-06-1996,6.25,6.3125,1385200.0,6.3125,6.28125,5.117817401885986
13-06-1996,6.09375,6.28125,985600.0,6.28125,6.1875,5.041430950164795
14-06-1996,6.15625,6.1875,1093200.0,6.21875,6.15625,5.015968322753906
17-06-1996,6.0625,6.09375,586400.0,6.125,6.0625,4.939584732055664
18-06-1996,5.96875,6.0,1450000.0,6.125,5.96875,4.863198757171631
19-06-1996,6.03125,6.03125,1416800.0,6.15625,6.0625,4.939584732055664
20-06-1996,6.0625,6.09375,1258400.0,6.125,6.09375,4.965045928955078
21-06-1996,6.0,6.09375,650800.0,6.09375,6.0,4.888659477233887
24-06-1996,5.96875,6.03125,948000.0,6.0625,6.0,4.888659477233887
25-06-1996,5.96875,6.03125,2754000.0,6.25,6.15625,5.015968322753906
26-06-1996,6.21875,6.21875,5256400.0,6.625,6.625,5.397897243499756
27-06-1996,6.53125,6.59375,4884000.0,6.75,6.75,5.499744415283203
28-06-1996,6.78125,6.8125,5409200.0,6.96875,6.96875,5.677974224090576
01-07-1996,6.90625,6.96875,3778800.0,7.28125,7.28125,5.932592391967773
02-07-1996,7.125,7.15625,2342000.0,7.25,7.21875,5.881668567657471
03-07-1996,7.125,7.125,1392000.0,7.21875,7.21875,5.881668567657471
05-07-1996,7.125,7.21875,753600.0,7.3125,7.28125,5.932592391967773
08-07-1996,7.1875,7.25,924800.0,7.3125,7.25,5.907132625579834
09-07-1996,7.25,7.25,2440800.0,7.5625,7.5,6.1108245849609375
10-07-1996,7.46875,7.5,3225600.0,7.65625,7.5625,6.161749362945557
11-07-1996,7.125,7.46875,3954400.0,7.59375,7.1875,5.86202335357666
12-07-1996,7.125,7.15625,1191200.0,7.21875,7.15625,5.836533069610596
15-07-1996,7.09375,7.125,1718400.0,7.34375,7.125,5.811048984527588
16-07-1996,6.5625,7.0625,1854400.0,7.09375,6.65625,5.428741931915283
17-07-1996,6.6875,6.6875,2270000.0,6.96875,6.6875,5.45422887802124
18-07-1996,6.65625,6.75,990400.0,6.8125,6.71875,5.4797139167785645
19-07-1996,6.65625,6.6875,1322800.0,6.71875,6.6875,5.45422887802124
22-07-1996,6.5625,6.6875,1101600.0,6.6875,6.59375,5.3777689933776855
23-07-1996,6.53125,6.625,2303200.0,6.8125,6.8125,5.556178569793701
24-07-1996,6.625,6.75,327600.0,6.75,6.625,5.403255939483643
25-07-1996,6.375,6.625,762800.0,6.78125,6.375,5.199361801147461
26-07-1996,6.40625,6.40625,462800.0,6.5625,6.53125,5.326793670654297
29-07-1996,6.4375,6.5,676800.0,6.53125,6.5,5.301309585571289
30-07-1996,6.25,6.46875,1988800.0,6.53125,6.3125,5.148385524749756
31-07-1996,6.125,6.3125,1733600.0,6.3125,6.25,5.097410678863525
01-08-1996,6.25,6.25,1422800.0,6.375,6.3125,5.148385524749756
02-08-1996,6.3125,6.3125,1042800.0,6.46875,6.46875,5.275819778442383
05-08-1996,6.34375,6.46875,503200.0,6.59375,6.59375,5.3777689933776855
06-08-1996,6.5,6.59375,495200.0,6.65625,6.65625,5.428741931915283
07-08-1996,6.75,6.75,1542800.0,6.84375,6.84375,5.581665515899658
08-08-1996,6.75,6.84375,767600.0,6.875,6.84375,5.581665515899658
09-08-1996,6.71875,6.875,634400.0,6.875,6.71875,5.4797139167785645
12-08-1996,6.625,6.75,167600.0,6.75,6.625,5.403255939483643
13-08-1996,6.625,6.65625,389600.0,6.6875,6.625,5.403255939483643
14-08-1996,6.625,6.625,333200.0,6.65625,6.65625,5.428741931915283
15-08-1996,6.625,6.625,331600.0,6.75,6.75,5.505203723907471
16-08-1996,6.625,6.6875,329600.0,6.71875,6.71875,5.4797139167785645
19-08-1996,6.625,6.65625,339200.0,6.78125,6.78125,5.530692100524902
20-08-1996,6.6875,6.8125,928800.0,6.8125,6.75,5.505203723907471
21-08-1996,6.59375,6.71875,837600.0,6.71875,6.65625,5.428741931915283
22-08-1996,6.59375,6.65625,433200.0,6.6875,6.65625,5.428741931915283
23-08-1996,6.5625,6.59375,228800.0,6.65625,6.625,5.403255939483643
26-08-1996,6.5625,6.625,488000.0,6.65625,6.65625,5.428741931915283
27-08-1996,6.5,6.625,669600.0,6.625,6.5,5.301309585571289
28-08-1996,6.46875,6.5,392800.0,6.5,6.46875,5.275819778442383
29-08-1996,6.4375,6.46875,499200.0,6.5,6.46875,5.275819778442383
30-08-1996,6.375,6.4375,160800.0,6.46875,6.46875,5.275819778442383
03-09-1996,6.5,6.5,1298800.0,6.59375,6.5625,5.352280139923096
04-09-1996,6.40625,6.53125,356400.0,6.53125,6.46875,5.275819778442383
05-09-1996,6.375,6.4375,382800.0,6.5,6.4375,5.250331401824951
