Date,Low,Open,Volume,High,Close,Adjusted Close
17-03-1980,1.6796875,0.0,164800.0,1.75,1.6875,0.5758373141288757
18-03-1980,1.6328125,0.0,188800.0,1.6875,1.65625,0.565173864364624
19-03-1980,1.6640625,0.0,84800.0,1.6875,1.6796875,0.5731714367866516
20-03-1980,1.6484375,0.0,328000.0,1.6875,1.6875,0.5758373141288757
21-03-1980,1.6640625,0.0,249600.0,1.6796875,1.6640625,0.5678399205207825
24-03-1980,1.640625,0.0,142400.0,1.6796875,1.6796875,0.5731714367866516
25-03-1980,1.6640625,0.0,249600.0,1.6875,1.6640625,0.5678399205207825
26-03-1980,1.6484375,0.0,228800.0,1.6875,1.65625,0.565173864364624
27-03-1980,1.640625,0.0,268800.0,1.65625,1.6484375,0.5625081658363342
28-03-1980,1.6484375,0.0,132800.0,1.671875,1.65625,0.565173864364624
31-03-1980,1.671875,0.0,363200.0,1.796875,1.796875,0.6131603717803955
01-04-1980,1.75,0.0,276800.0,1.8046875,1.765625,0.6024966835975647
02-04-1980,1.7109375,0.0,86400.0,1.765625,1.7109375,0.5838350653648376
03-04-1980,1.6953125,0.0,156800.0,1.7265625,1.71875,0.5865013599395752
07-04-1980,1.6875,0.0,195200.0,1.71875,1.6953125,0.578503429889679
08-04-1980,1.6875,0.0,414400.0,1.71875,1.7109375,0.5838350653648376
09-04-1980,1.6796875,0.0,432000.0,1.7109375,1.6875,0.5758373141288757
10-04-1980,1.6796875,0.0,544000.0,1.703125,1.6875,0.5758373141288757
11-04-1980,1.6953125,0.0,372800.0,1.734375,1.734375,0.5918328166007996
14-04-1980,1.7265625,0.0,107200.0,1.75,1.734375,0.5918328166007996
15-04-1980,1.7265625,0.0,110400.0,1.75,1.7265625,0.5891668796539307
16-04-1980,1.734375,0.0,316800.0,1.75,1.734375,0.5918328166007996
17-04-1980,1.734375,0.0,108800.0,1.75,1.734375,0.5918328166007996
18-04-1980,1.734375,0.0,96000.0,1.75,1.7421875,0.594498872756958
21-04-1980,1.734375,0.0,128000.0,1.7421875,1.734375,0.5918328166007996
22-04-1980,1.7265625,0.0,99200.0,1.765625,1.765625,0.6024966835975647
23-04-1980,1.765625,0.0,123200.0,1.796875,1.765625,0.6024966835975647
24-04-1980,1.78125,0.0,152000.0,1.8125,1.7890625,0.6104947328567505
25-04-1980,1.7734375,0.0,67200.0,1.8125,1.8046875,0.6158261299133301
28-04-1980,1.765625,0.0,361600.0,1.8046875,1.78125,0.607828676700592
29-04-1980,1.7890625,0.0,164800.0,1.8359375,1.8125,0.6184921860694885
30-04-1980,1.796875,0.0,152000.0,1.84375,1.8359375,0.6264898180961609
01-05-1980,1.8203125,0.0,312000.0,1.8671875,1.859375,0.6344879865646362
02-05-1980,1.875,0.0,476800.0,1.953125,1.9453125,0.6638129949569702
05-05-1980,1.90625,0.0,828800.0,1.9296875,1.9296875,0.6584805846214294
06-05-1980,1.8828125,0.0,216000.0,1.90625,1.8828125,0.6424856185913086
07-05-1980,1.8671875,0.0,209600.0,1.90625,1.890625,0.6451512575149536
08-05-1980,1.8984375,0.0,158400.0,1.9140625,1.8984375,0.6478174328804016
09-05-1980,1.8671875,0.0,129600.0,1.8984375,1.8671875,0.6371538043022156
12-05-1980,1.8671875,0.0,190400.0,1.875,1.8671875,0.6371538043022156
13-05-1980,1.859375,0.0,70400.0,1.875,1.875,0.6398194432258606
14-05-1980,1.859375,0.0,129600.0,1.875,1.875,0.6398194432258606
15-05-1980,1.8125,0.0,240000.0,1.875,1.859375,0.6344879865646362
16-05-1980,1.765625,0.0,120000.0,1.84375,1.765625,0.6024966835975647
19-05-1980,1.765625,0.0,148800.0,1.7890625,1.7890625,0.6104947328567505
20-05-1980,1.7890625,0.0,158400.0,1.8359375,1.8359375,0.6264898180961609
21-05-1980,1.8203125,0.0,532800.0,1.8671875,1.8359375,0.6264898180961609
22-05-1980,1.796875,0.0,571200.0,1.828125,1.828125,0.6238240599632263
23-05-1980,1.796875,0.0,224000.0,1.828125,1.828125,0.6238240599632263
27-05-1980,1.8125,0.0,316800.0,1.8671875,1.828125,0.6238240599632263
28-05-1980,1.8359375,0.0,542400.0,1.8671875,1.8671875,0.6371538043022156
29-05-1980,1.8515625,0.0,187200.0,1.875,1.8515625,0.6318216323852539
30-05-1980,1.84375,0.0,227200.0,1.890625,1.890625,0.6451512575149536
02-06-1980,1.875,0.0,192000.0,1.90625,1.890625,0.6451512575149536
03-06-1980,1.90625,0.0,320000.0,1.953125,1.921875,0.6558150053024292
04-06-1980,1.921875,0.0,123200.0,1.953125,1.9296875,0.6584805846214294
05-06-1980,1.9375,0.0,467200.0,2.0,1.96875,0.671810507774353
06-06-1980,1.9375,0.0,120000.0,1.96875,1.9375,0.6611467003822327
09-06-1980,1.9296875,0.0,83200.0,1.953125,1.9375,0.6611467003822327
10-06-1980,1.953125,0.0,203200.0,1.9921875,1.9921875,0.6798081994056702
11-06-1980,1.9765625,0.0,70400.0,1.9921875,1.9921875,0.6798081994056702
12-06-1980,1.9609375,0.0,128000.0,1.984375,1.96875,0.671810507774353
13-06-1980,1.953125,0.0,176000.0,1.984375,1.984375,0.6771422028541565
16-06-1980,1.953125,0.0,251200.0,1.984375,1.9765625,0.6744762659072876
17-06-1980,1.953125,0.0,155200.0,1.9765625,1.953125,0.666478157043457
18-06-1980,1.9453125,0.0,147200.0,1.9609375,1.9609375,0.6691446900367737
19-06-1980,1.9375,0.0,187200.0,1.9609375,1.9375,0.6611467003822327
20-06-1980,1.9375,0.0,300800.0,1.9609375,1.953125,0.666478157043457
23-06-1980,1.9375,0.0,128000.0,1.953125,1.9375,0.6611467003822327
24-06-1980,1.9375,0.0,452800.0,1.953125,1.9375,0.6611467003822327
25-06-1980,1.9375,0.0,142400.0,1.9609375,1.9609375,0.6691446900367737
26-06-1980,1.9296875,0.0,152000.0,1.953125,1.9375,0.6611467003822327
27-06-1980,1.9296875,0.0,737600.0,1.9375,1.9375,0.6611467003822327
30-06-1980,1.84375,0.0,265600.0,1.9375,1.875,0.6398194432258606
01-07-1980,1.84375,0.0,1777600.0,1.890625,1.890625,0.6451512575149536
02-07-1980,1.875,0.0,489600.0,1.890625,1.8828125,0.6424856185913086
03-07-1980,1.890625,0.0,136000.0,1.921875,1.8984375,0.6478174328804016
07-07-1980,1.9140625,0.0,193600.0,1.9375,1.921875,0.6558150053024292
08-07-1980,1.9375,0.0,206400.0,1.953125,1.953125,0.666478157043457
09-07-1980,1.9375,0.0,321600.0,1.9921875,1.9921875,0.6798081994056702
10-07-1980,1.96875,0.0,627200.0,2.0234375,2.0,0.6824740767478943
11-07-1980,1.984375,0.0,158400.0,2.015625,2.015625,0.6878057718276978
14-07-1980,2.0,0.0,190400.0,2.0546875,2.0546875,0.7011356353759766
15-07-1980,2.046875,0.0,291200.0,2.078125,2.0703125,0.7064673900604248
16-07-1980,2.046875,0.0,859200.0,2.0703125,2.0703125,0.7064673900604248
17-07-1980,2.0625,0.0,480000.0,2.0859375,2.078125,0.7091335654258728
18-07-1980,2.0703125,0.0,652800.0,2.1484375,2.1328125,0.7277945876121521
21-07-1980,2.1328125,0.0,268800.0,2.15625,2.15625,0.7357925772666931
22-07-1980,2.1484375,0.0,350400.0,2.171875,2.1484375,0.7331261038780212
23-07-1980,2.125,0.0,280000.0,2.15625,2.125,0.7251291275024414
24-07-1980,2.125,0.0,332800.0,2.140625,2.140625,0.7304607033729553
25-07-1980,2.125,0.0,121600.0,2.140625,2.1328125,0.7277945876121521
28-07-1980,2.125,0.0,355200.0,2.140625,2.140625,0.7304607033729553
29-07-1980,2.1328125,0.0,188800.0,2.171875,2.171875,0.7411242723464966
30-07-1980,2.1875,0.0,1552000.0,2.1953125,2.1953125,0.749122142791748
31-07-1980,2.1875,0.0,1233600.0,2.2109375,2.2109375,0.7544537782669067
01-08-1980,2.21875,0.0,305600.0,2.234375,2.2265625,0.7597860097885132
04-08-1980,2.21875,0.0,1603200.0,2.2734375,2.2734375,0.7757808566093445
05-08-1980,2.2265625,0.0,1168000.0,2.265625,2.25,0.7677839398384094
06-08-1980,2.2421875,0.0,254400.0,2.2890625,2.2890625,0.7811129093170166
07-08-1980,2.25,0.0,276800.0,2.2734375,2.2578125,0.7704491019248962
08-08-1980,2.2578125,0.0,598400.0,2.28125,2.2734375,0.7757808566093445
11-08-1980,2.25,0.0,259200.0,2.2578125,2.2578125,0.7704491019248962
12-08-1980,2.25,0.0,1137600.0,2.3125,2.2734375,0.7757808566093445
13-08-1980,2.2578125,0.0,140800.0,2.296875,2.265625,0.7731152176856995
14-08-1980,2.25,0.0,126400.0,2.265625,2.265625,0.7731152176856995
15-08-1980,2.2578125,0.0,195200.0,2.2890625,2.2578125,0.7704491019248962
18-08-1980,2.203125,0.0,299200.0,2.25,2.203125,0.7517879605293274
19-08-1980,2.171875,0.0,622400.0,2.203125,2.1796875,0.743790328502655
20-08-1980,2.1484375,0.0,259200.0,2.1953125,2.1953125,0.749122142791748
21-08-1980,2.25,0.0,745600.0,2.28125,2.265625,0.7731152176856995
22-08-1980,2.2578125,0.0,195200.0,2.28125,2.265625,0.7731152176856995
25-08-1980,2.25,0.0,91200.0,2.265625,2.25,0.7677839398384094
26-08-1980,2.25,0.0,254400.0,2.28125,2.265625,0.7731152176856995
27-08-1980,2.21875,0.0,336000.0,2.2578125,2.21875,0.7571198344230652
28-08-1980,2.171875,0.0,212800.0,2.203125,2.171875,0.7411242723464966
29-08-1980,2.15625,0.0,740800.0,2.1875,2.171875,0.7411242723464966
02-09-1980,2.171875,0.0,155200.0,2.1953125,2.1875,0.7464560866355896
03-09-1980,2.171875,0.0,1081600.0,2.265625,2.25,0.7677839398384094
04-09-1980,2.234375,0.0,416000.0,2.2734375,2.25,0.7677839398384094
05-09-1980,2.234375,0.0,731200.0,2.2578125,2.2578125,0.7704491019248962
08-09-1980,2.2421875,0.0,100800.0,2.265625,2.2421875,0.7651174068450928
09-09-1980,2.234375,0.0,91200.0,2.2421875,2.2421875,0.7651174068450928
10-09-1980,2.234375,0.0,83200.0,2.2421875,2.234375,0.7624517679214478
11-09-1980,2.234375,0.0,60800.0,2.25,2.25,0.7677839398384094
12-09-1980,2.2421875,0.0,128000.0,2.265625,2.265625,0.7731152176856995
15-09-1980,2.25,0.0,236800.0,2.2734375,2.25,0.7677839398384094
16-09-1980,2.25,0.0,96000.0,2.265625,2.265625,0.7731152176856995
17-09-1980,2.25,0.0,1672000.0,2.3359375,2.328125,0.7944425344467163
18-09-1980,2.3359375,0.0,201600.0,2.3671875,2.34375,0.7997742295265198
19-09-1980,2.3359375,0.0,124800.0,2.3515625,2.34375,0.7997742295265198
22-09-1980,2.34375,0.0,264000.0,2.359375,2.3515625,0.8024405241012573
23-09-1980,2.3359375,0.0,488000.0,2.375,2.3515625,0.8024405241012573
24-09-1980,2.328125,0.0,148800.0,2.3359375,2.328125,0.7944425344467163
25-09-1980,2.296875,0.0,265600.0,2.328125,2.3046875,0.7864448428153992
26-09-1980,2.2734375,0.0,352000.0,2.3046875,2.2890625,0.7811129093170166
29-09-1980,2.265625,0.0,428800.0,2.28125,2.28125,0.778447151184082
30-09-1980,2.265625,0.0,124800.0,2.2890625,2.2890625,0.7811129093170166
01-10-1980,2.2578125,0.0,100800.0,2.28125,2.2578125,0.7704491019248962
02-10-1980,2.25,0.0,585600.0,2.2734375,2.2734375,0.7757808566093445
03-10-1980,2.265625,0.0,180800.0,2.2890625,2.28125,0.778447151184082
06-10-1980,2.265625,0.0,121600.0,2.296875,2.265625,0.7731152176856995
07-10-1980,2.25,0.0,459200.0,2.265625,2.25,0.7677839398384094
08-10-1980,2.2421875,0.0,817600.0,2.28125,2.28125,0.778447151184082
09-10-1980,2.25,0.0,443200.0,2.28125,2.265625,0.7731152176856995
10-10-1980,2.203125,0.0,796800.0,2.234375,2.2265625,0.7597860097885132
13-10-1980,2.2109375,0.0,97600.0,2.2265625,2.2265625,0.7597860097885132
14-10-1980,2.203125,0.0,224000.0,2.25,2.203125,0.7517879605293274
15-10-1980,2.1875,0.0,113600.0,2.203125,2.1953125,0.749122142791748
16-10-1980,2.171875,0.0,425600.0,2.203125,2.1875,0.7464560866355896
17-10-1980,2.15625,0.0,300800.0,2.1875,2.1875,0.7464560866355896
20-10-1980,2.1640625,0.0,150400.0,2.1875,2.1875,0.7464560866355896
21-10-1980,2.1875,0.0,566400.0,2.25,2.25,0.7677839398384094
22-10-1980,2.2109375,0.0,172800.0,2.2734375,2.234375,0.7624517679214478
23-10-1980,2.234375,0.0,336000.0,2.265625,2.25,0.7677839398384094
24-10-1980,2.234375,0.0,168000.0,2.265625,2.265625,0.7731152176856995
27-10-1980,2.234375,0.0,521600.0,2.25,2.25,0.7677839398384094
28-10-1980,2.234375,0.0,376000.0,2.265625,2.2578125,0.7704491019248962
29-10-1980,2.25,0.0,251200.0,2.265625,2.265625,0.7731152176856995
30-10-1980,2.2578125,0.0,156800.0,2.2734375,2.265625,0.7731152176856995
31-10-1980,2.25,0.0,243200.0,2.265625,2.265625,0.7731152176856995
03-11-1980,2.2265625,0.0,1062400.0,2.28125,2.28125,0.778447151184082
05-11-1980,2.2734375,0.0,1062400.0,2.359375,2.28125,0.778447151184082
06-11-1980,2.28125,0.0,531200.0,2.3125,2.296875,0.7837789058685303
07-11-1980,2.28125,0.0,579200.0,2.296875,2.28125,0.778447151184082
10-11-1980,2.2578125,0.0,180800.0,2.28125,2.2734375,0.7757808566093445
11-11-1980,2.265625,0.0,867200.0,2.28125,2.265625,0.7731152176856995
12-11-1980,2.25,0.0,281600.0,2.28125,2.2734375,0.7757808566093445
13-11-1980,2.2578125,0.0,1980800.0,2.28125,2.2734375,0.7757808566093445
14-11-1980,2.2734375,0.0,702400.0,2.3046875,2.3046875,0.7864448428153992
17-11-1980,2.2890625,0.0,1176000.0,2.34375,2.328125,0.7944425344467163
18-11-1980,2.328125,0.0,164800.0,2.3515625,2.3359375,0.79710853099823
19-11-1980,2.3203125,0.0,241600.0,2.3671875,2.359375,0.8051064014434814
20-11-1980,2.34375,0.0,377600.0,2.421875,2.3984375,0.818435788154602
21-11-1980,2.3125,0.0,209600.0,2.3984375,2.359375,0.8051064014434814
24-11-1980,2.296875,0.0,243200.0,2.3828125,2.34375,0.7997742295265198
25-11-1980,2.296875,0.0,179200.0,2.3515625,2.3125,0.7891107797622681
26-11-1980,2.1953125,0.0,377600.0,2.265625,2.203125,0.7517879605293274
28-11-1980,2.171875,0.0,323200.0,2.203125,2.1875,0.7464560866355896
01-12-1980,2.1796875,0.0,152000.0,2.203125,2.1875,0.7464560866355896
02-12-1980,2.171875,0.0,244800.0,2.203125,2.203125,0.7517879605293274
03-12-1980,2.1875,0.0,182400.0,2.25,2.25,0.7677839398384094
04-12-1980,2.21875,0.0,643200.0,2.265625,2.25,0.7677839398384094
05-12-1980,2.234375,0.0,235200.0,2.25,2.2421875,0.7651174068450928
08-12-1980,2.1875,0.0,385600.0,2.21875,2.203125,0.7517879605293274
09-12-1980,2.1875,0.0,528000.0,2.203125,2.1875,0.7464560866355896
10-12-1980,2.1875,0.0,206400.0,2.234375,2.1953125,0.749122142791748
11-12-1980,2.15625,0.0,456000.0,2.203125,2.15625,0.7357925772666931
12-12-1980,2.1484375,0.0,57600.0,2.171875,2.15625,0.7357925772666931
15-12-1980,2.1171875,0.0,472000.0,2.1484375,2.1171875,0.7224630117416382
16-12-1980,2.046875,0.0,131200.0,2.1015625,2.0625,0.7038015127182007
17-12-1980,2.0703125,0.0,276800.0,2.1015625,2.0859375,0.7117993831634521
18-12-1980,2.0625,0.0,168000.0,2.078125,2.0703125,0.7064673900604248
19-12-1980,2.0625,0.0,504000.0,2.140625,2.140625,0.7304607033729553
22-12-1980,2.125,0.0,384000.0,2.1640625,2.1640625,0.7384585738182068
23-12-1980,2.140625,0.0,184000.0,2.1875,2.15625,0.7357925772666931
24-12-1980,2.1328125,0.0,1203200.0,2.2421875,2.2421875,0.7651174068450928
26-12-1980,2.2265625,0.0,97600.0,2.265625,2.25,0.7677839398384094
29-12-1980,2.234375,0.0,324800.0,2.3046875,2.265625,0.7731152176856995
30-12-1980,2.234375,0.0,1240000.0,2.328125,2.328125,0.7944425344467163
31-12-1980,2.3203125,0.0,928000.0,2.546875,2.546875,0.8690882325172424
02-01-1981,2.5,0.0,483200.0,2.546875,2.546875,0.8690882325172424
05-01-1981,2.5,0.0,1252800.0,2.6015625,2.515625,0.858424723148346
06-01-1981,2.40625,0.0,296000.0,2.5,2.421875,0.8264336585998535
07-01-1981,2.25,0.0,540800.0,2.375,2.359375,0.8051064014434814
08-01-1981,2.21875,0.0,680000.0,2.3671875,2.296875,0.7837789058685303
09-01-1981,2.2890625,0.0,1307200.0,2.3984375,2.3984375,0.818435788154602
12-01-1981,2.4375,0.0,1108800.0,2.5546875,2.53125,0.8637562990188599
13-01-1981,2.5,0.0,276800.0,2.53125,2.515625,0.858424723148346
14-01-1981,2.5,0.0,1025600.0,2.578125,2.5234375,0.8610904812812805
15-01-1981,2.5,0.0,310400.0,2.53125,2.515625,0.858424723148346
16-01-1981,2.5078125,0.0,820800.0,2.640625,2.640625,0.9010797142982483
19-01-1981,2.578125,0.0,768000.0,2.65625,2.625,0.8957474231719971
20-01-1981,2.640625,0.0,822400.0,2.671875,2.6640625,0.909076988697052
21-01-1981,2.625,0.0,2556800.0,2.703125,2.6875,0.9170747399330139
22-01-1981,2.609375,0.0,1601600.0,2.765625,2.640625,0.9010797142982483
23-01-1981,2.578125,0.0,1859200.0,2.640625,2.625,0.8957474231719971
26-01-1981,2.5625,0.0,329600.0,2.6015625,2.5625,0.8744199872016907
27-01-1981,2.5625,0.0,753600.0,2.59375,2.5859375,0.8824183344841003
28-01-1981,2.578125,0.0,358400.0,2.6484375,2.625,0.8957474231719971
29-01-1981,2.625,0.0,262400.0,2.6875,2.65625,0.906411349773407
30-01-1981,2.640625,0.0,358400.0,2.6953125,2.6640625,0.909076988697052
02-02-1981,2.578125,0.0,187200.0,2.6484375,2.59375,0.8850841522216797
03-02-1981,2.578125,0.0,313600.0,2.640625,2.625,0.8957474231719971
04-02-1981,2.5703125,0.0,601600.0,2.65625,2.578125,0.8797518014907837
05-02-1981,2.5703125,0.0,201600.0,2.625,2.625,0.8957474231719971
06-02-1981,2.625,0.0,532800.0,2.71875,2.7109375,0.9250720739364624
09-02-1981,2.6640625,0.0,464000.0,2.71875,2.703125,0.9224063158035278
10-02-1981,2.6875,0.0,472000.0,2.71875,2.703125,0.9224063158035278
11-02-1981,2.65625,0.0,617600.0,2.703125,2.6875,0.9170747399330139
12-02-1981,2.625,0.0,196800.0,2.6796875,2.6796875,0.9144083261489868
13-02-1981,2.609375,0.0,156800.0,2.671875,2.640625,0.9010797142982483
17-02-1981,2.6015625,0.0,345600.0,2.65625,2.609375,0.8904159665107727
18-02-1981,2.5625,0.0,428800.0,2.640625,2.59375,0.8850841522216797
19-02-1981,2.53125,0.0,601600.0,2.59375,2.546875,0.8690882325172424
20-02-1981,2.5390625,0.0,329600.0,2.5546875,2.546875,0.8690882325172424
23-02-1981,2.546875,0.0,427200.0,2.5859375,2.5859375,0.8824183344841003
24-02-1981,2.59375,0.0,334400.0,2.6328125,2.625,0.8957474231719971
25-02-1981,2.609375,0.0,4424000.0,2.9375,2.9375,1.0023839473724365
26-02-1981,2.875,0.0,5041600.0,3.09375,3.046875,1.039706826210022
27-02-1981,2.9921875,0.0,3398400.0,3.15625,3.15625,1.0770297050476074
02-03-1981,3.140625,0.0,3272000.0,3.234375,3.2109375,1.0956907272338867
03-03-1981,3.09375,0.0,3803200.0,3.234375,3.1484375,1.074363350868225
04-03-1981,3.0625,0.0,1982400.0,3.125,3.125,1.0663660764694214
05-03-1981,2.984375,0.0,1225600.0,3.1171875,3.0,1.023711085319519
06-03-1981,2.890625,0.0,1899200.0,3.0390625,3.03125,1.0343743562698364
09-03-1981,2.96875,0.0,712000.0,3.0625,3.0625,1.0450385808944702
10-03-1981,2.9375,0.0,497600.0,3.046875,2.9609375,1.010381817817688
11-03-1981,2.9140625,0.0,1625600.0,2.984375,2.96875,1.013047456741333
12-03-1981,2.9375,0.0,1329600.0,3.09375,3.078125,1.0503700971603394
13-03-1981,3.09375,0.0,1672000.0,3.140625,3.125,1.0663660764694214
16-03-1981,3.0625,0.0,566400.0,3.140625,3.109375,1.061033844947815
17-03-1981,3.1171875,0.0,2062400.0,3.1875,3.1640625,1.0796953439712524
18-03-1981,3.125,0.0,1782400.0,3.296875,3.21875,1.0983563661575317
19-03-1981,3.171875,0.0,648000.0,3.265625,3.171875,1.0823607444763184
20-03-1981,3.15625,0.0,884800.0,3.25,3.1953125,1.0903589725494385
23-03-1981,3.171875,0.0,368000.0,3.234375,3.21875,1.0983563661575317
24-03-1981,3.125,0.0,760000.0,3.25,3.1796875,1.0850275754928589
25-03-1981,3.171875,0.0,6833600.0,3.4921875,3.453125,1.1783337593078613
26-03-1981,3.34375,0.0,2190400.0,3.46875,3.34375,1.1410117149353027
27-03-1981,3.328125,0.0,1571200.0,3.4609375,3.390625,1.157006859779358
30-03-1981,3.28125,0.0,1011200.0,3.3984375,3.28125,1.1196844577789307
31-03-1981,3.328125,0.0,1208000.0,3.3984375,3.3828125,1.1543409824371338
01-04-1981,3.3359375,0.0,1326400.0,3.4375,3.40625,1.1623384952545166
02-04-1981,3.28125,0.0,723200.0,3.421875,3.359375,1.1463428735733032
03-04-1981,3.28125,0.0,817600.0,3.3671875,3.296875,1.1250163316726685
06-04-1981,3.3125,0.0,2217600.0,3.609375,3.609375,1.2316522598266602
07-04-1981,3.515625,0.0,2635200.0,3.640625,3.546875,1.2103246450424194
08-04-1981,3.46875,0.0,968000.0,3.5859375,3.484375,1.188997745513916
09-04-1981,3.46875,0.0,2723200.0,3.5625,3.515625,1.1996612548828125
10-04-1981,3.46875,0.0,1227200.0,3.5625,3.5625,1.215657353401184
13-04-1981,3.5625,0.0,1553600.0,3.609375,3.578125,1.220989465713501
14-04-1981,3.484375,0.0,555200.0,3.5625,3.5,1.1943303346633911
15-04-1981,3.4375,0.0,665600.0,3.5078125,3.4921875,1.191663384437561
16-04-1981,3.4765625,0.0,716800.0,3.5234375,3.5234375,1.2023273706436157
20-04-1981,3.4921875,0.0,400000.0,3.53125,3.515625,1.1996612548828125
21-04-1981,3.296875,0.0,1460800.0,3.5234375,3.296875,1.1250163316726685
22-04-1981,3.28125,0.0,824000.0,3.3671875,3.3203125,1.1330138444900513
23-04-1981,3.3125,0.0,907200.0,3.421875,3.3828125,1.1543409824371338
24-04-1981,3.34375,0.0,995200.0,3.421875,3.40625,1.1623384952545166
27-04-1981,3.375,0.0,1088000.0,3.453125,3.40625,1.1623384952545166
28-04-1981,3.234375,0.0,592000.0,3.390625,3.2890625,1.1223505735397339
29-04-1981,3.15625,0.0,633600.0,3.25,3.1796875,1.0850275754928589
30-04-1981,3.1640625,0.0,756800.0,3.2109375,3.1875,1.0876926183700562
01-05-1981,3.171875,0.0,1225600.0,3.296875,3.25,1.1090209484100342
04-05-1981,3.171875,0.0,536000.0,3.25,3.1953125,1.0903589725494385
05-05-1981,3.09375,0.0,937600.0,3.140625,3.1015625,1.0583678483963013
06-05-1981,3.109375,0.0,716800.0,3.15625,3.1171875,1.0636992454528809
07-05-1981,3.109375,0.0,876800.0,3.203125,3.1875,1.0876926183700562
08-05-1981,3.1640625,0.0,827200.0,3.203125,3.1875,1.0876926183700562
11-05-1981,3.1015625,0.0,372800.0,3.2109375,3.1015625,1.0583678483963013
12-05-1981,3.0625,0.0,782400.0,3.109375,3.078125,1.0503700971603394
13-05-1981,3.046875,0.0,374400.0,3.125,3.09375,1.0557019710540771
14-05-1981,3.078125,0.0,1054400.0,3.203125,3.125,1.0663660764694214
15-05-1981,3.109375,0.0,748800.0,3.15625,3.140625,1.0716978311538696
18-05-1981,3.1171875,0.0,348800.0,3.1484375,3.1328125,1.069032073020935
19-05-1981,3.125,0.0,654400.0,3.203125,3.1875,1.0876926183700562
20-05-1981,3.203125,0.0,1464000.0,3.40625,3.3984375,1.1596726179122925
21-05-1981,3.3203125,0.0,801600.0,3.3984375,3.375,1.1516746282577515
22-05-1981,3.296875,0.0,388800.0,3.3671875,3.328125,1.135679841041565
26-05-1981,3.2890625,0.0,444800.0,3.328125,3.328125,1.135679841041565
27-05-1981,3.265625,0.0,400000.0,3.359375,3.2734375,1.1170175075531006
28-05-1981,3.234375,0.0,273600.0,3.296875,3.234375,1.1036887168884277
29-05-1981,3.171875,0.0,212800.0,3.21875,3.203125,1.0930253267288208
01-06-1981,3.140625,0.0,1132800.0,3.2421875,3.140625,1.0716978311538696
02-06-1981,3.0,0.0,675200.0,3.125,3.0625,1.0450385808944702
03-06-1981,2.9375,0.0,411200.0,3.046875,2.9609375,1.010381817817688
04-06-1981,2.9453125,0.0,344000.0,2.9765625,2.96875,1.013047456741333
05-06-1981,2.921875,0.0,1054400.0,3.0390625,3.03125,1.0343743562698364
08-06-1981,3.015625,0.0,347200.0,3.078125,3.03125,1.0343743562698364
09-06-1981,3.0,0.0,750400.0,3.078125,3.046875,1.039706826210022
10-06-1981,3.0,0.0,369600.0,3.0859375,3.0625,1.0450385808944702
11-06-1981,3.078125,0.0,139200.0,3.15625,3.15625,1.0770297050476074
12-06-1981,3.0859375,0.0,171200.0,3.140625,3.09375,1.0557019710540771
15-06-1981,3.078125,0.0,233600.0,3.140625,3.140625,1.0716978311538696
16-06-1981,3.1015625,0.0,150400.0,3.1328125,3.109375,1.061033844947815
17-06-1981,3.0546875,0.0,256000.0,3.09375,3.078125,1.0503700971603394
18-06-1981,3.0078125,0.0,185600.0,3.078125,3.015625,1.0290428400039673
19-06-1981,2.9375,0.0,196800.0,3.0,2.953125,1.0077157020568848
22-06-1981,2.9375,0.0,363200.0,2.984375,2.9609375,1.010381817817688
23-06-1981,2.9453125,0.0,195200.0,2.9921875,2.96875,1.013047456741333
24-06-1981,2.90625,0.0,224000.0,2.9765625,2.9375,1.0023839473724365
25-06-1981,2.921875,0.0,192000.0,2.9609375,2.9375,1.0023839473724365
26-06-1981,2.828125,0.0,332800.0,2.9296875,2.875,0.9810563921928406
29-06-1981,2.875,0.0,454400.0,2.921875,2.9140625,0.9943863153457642
30-06-1981,2.9140625,0.0,284800.0,2.9609375,2.9375,1.0023839473724365
01-07-1981,2.921875,0.0,190400.0,2.953125,2.9453125,1.0050499439239502
02-07-1981,2.921875,0.0,67200.0,2.953125,2.9375,1.0023839473724365
06-07-1981,2.890625,0.0,198400.0,2.9296875,2.90625,0.9917200207710266
07-07-1981,2.796875,0.0,302400.0,2.8984375,2.8046875,0.9570630192756653
08-07-1981,2.7421875,0.0,870400.0,2.8125,2.765625,0.9437339901924133
09-07-1981,2.71875,0.0,662400.0,2.75,2.75,0.9384016990661621
10-07-1981,2.7109375,0.0,360000.0,2.7578125,2.71875,0.9277383685112
13-07-1981,2.6875,0.0,428800.0,2.7265625,2.6953125,0.9197403192520142
14-07-1981,2.6875,0.0,577600.0,2.7109375,2.703125,0.9224063158035278
15-07-1981,2.6953125,0.0,2560000.0,2.875,2.796875,0.9543973803520203
16-07-1981,2.796875,0.0,1044800.0,2.8359375,2.8359375,0.9677272439002991
17-07-1981,2.828125,0.0,542400.0,2.8984375,2.84375,0.9703928232192993
20-07-1981,2.75,0.0,889600.0,2.84375,2.765625,0.9437339901924133
21-07-1981,2.7421875,0.0,651200.0,2.8125,2.7421875,0.9357365965843201
22-07-1981,2.703125,0.0,379200.0,2.765625,2.703125,0.9224063158035278
23-07-1981,2.671875,0.0,664000.0,2.7578125,2.7265625,0.9304043054580688
24-07-1981,2.71875,0.0,174400.0,2.765625,2.75,0.9384016990661621
27-07-1981,2.71875,0.0,350400.0,2.78125,2.71875,0.9277383685112
28-07-1981,2.703125,0.0,1201600.0,2.78125,2.78125,0.949066162109375
29-07-1981,2.78125,0.0,1441600.0,2.8359375,2.796875,0.9543973803520203
30-07-1981,2.7734375,0.0,329600.0,2.8203125,2.7890625,0.9517317414283752
31-07-1981,2.78125,0.0,241600.0,2.8125,2.78125,0.949066162109375
03-08-1981,2.7734375,0.0,460800.0,2.8125,2.796875,0.9543973803520203
04-08-1981,2.7578125,0.0,310400.0,2.8125,2.796875,0.9543973803520203
05-08-1981,2.796875,0.0,454400.0,2.890625,2.890625,0.9863887429237366
06-08-1981,2.859375,0.0,1337600.0,2.9453125,2.875,0.9810563921928406
07-08-1981,2.8359375,0.0,129600.0,2.890625,2.8515625,0.9730583429336548
10-08-1981,2.8359375,0.0,798400.0,2.875,2.875,0.9810563921928406
11-08-1981,2.890625,0.0,822400.0,2.96875,2.953125,1.0077157020568848
12-08-1981,2.875,0.0,324800.0,2.984375,2.8828125,0.9837226867675781
13-08-1981,2.8359375,0.0,112000.0,2.875,2.859375,0.9757249355316162
14-08-1981,2.8515625,0.0,268800.0,2.9296875,2.90625,0.9917200207710266
17-08-1981,2.8515625,0.0,265600.0,2.921875,2.8828125,0.9837226867675781
18-08-1981,2.8125,0.0,1198400.0,2.8828125,2.8359375,0.9677272439002991
19-08-1981,2.828125,0.0,326400.0,2.859375,2.859375,0.9757249355316162
20-08-1981,2.8515625,0.0,166400.0,2.8671875,2.8515625,0.9730583429336548
21-08-1981,2.828125,0.0,675200.0,2.859375,2.8359375,0.9677272439002991
24-08-1981,2.828125,0.0,747200.0,2.8515625,2.8515625,0.9730583429336548
25-08-1981,2.8359375,0.0,464000.0,2.8984375,2.8828125,0.9837226867675781
26-08-1981,2.8671875,0.0,120000.0,2.890625,2.8671875,0.9783903956413269
27-08-1981,2.8671875,0.0,112000.0,2.875,2.8671875,0.9783903956413269
28-08-1981,2.8671875,0.0,248000.0,2.875,2.8671875,0.9783903956413269
31-08-1981,2.859375,0.0,196800.0,2.8671875,2.859375,0.9757249355316162
01-09-1981,2.8671875,0.0,342400.0,2.875,2.8671875,0.9783903956413269
02-09-1981,2.875,0.0,153600.0,2.8984375,2.8828125,0.9837226867675781
03-09-1981,2.859375,0.0,315200.0,2.890625,2.859375,0.9757249355316162
04-09-1981,2.796875,0.0,465600.0,2.84375,2.8125,0.9597287774085999
08-09-1981,2.65625,0.0,449600.0,2.7890625,2.6953125,0.9197403192520142
09-09-1981,2.6640625,0.0,278400.0,2.703125,2.6875,0.9170747399330139
10-09-1981,2.6875,0.0,217600.0,2.7578125,2.7265625,0.9304043054580688
11-09-1981,2.6875,0.0,230400.0,2.7265625,2.703125,0.9224063158035278
14-09-1981,2.6953125,0.0,393600.0,2.71875,2.7109375,0.9250720739364624
15-09-1981,2.703125,0.0,355200.0,2.75,2.703125,0.9224063158035278
16-09-1981,2.703125,0.0,403200.0,2.734375,2.734375,0.9330700635910034
17-09-1981,2.7109375,0.0,89600.0,2.734375,2.7109375,0.9250720739364624
18-09-1981,2.6328125,0.0,1006400.0,2.703125,2.640625,0.9010797142982483
21-09-1981,2.640625,0.0,283200.0,2.6484375,2.6484375,0.903745174407959
22-09-1981,2.6328125,0.0,240000.0,2.6484375,2.6484375,0.903745174407959
23-09-1981,2.59375,0.0,523200.0,2.625,2.609375,0.8904159665107727
24-09-1981,2.578125,0.0,484800.0,2.640625,2.59375,0.8850841522216797
25-09-1981,2.4609375,0.0,366400.0,2.59375,2.46875,0.8424288630485535
28-09-1981,2.390625,0.0,694400.0,2.546875,2.546875,0.8690882325172424
29-09-1981,2.5625,0.0,737600.0,2.625,2.5625,0.8744199872016907
30-09-1981,2.5,0.0,313600.0,2.5546875,2.515625,0.858424723148346
01-10-1981,2.453125,0.0,964800.0,2.5234375,2.4921875,0.8504270315170288
02-10-1981,2.4765625,0.0,2206400.0,2.5234375,2.5234375,0.8610904812812805
05-10-1981,2.4765625,0.0,516800.0,2.53125,2.4921875,0.8504270315170288
06-10-1981,2.421875,0.0,513600.0,2.4921875,2.4375,0.8317654728889465
07-10-1981,2.40625,0.0,182400.0,2.4375,2.421875,0.8264336585998535
08-10-1981,2.40625,0.0,644800.0,2.4609375,2.453125,0.8370972871780396
09-10-1981,2.421875,0.0,329600.0,2.453125,2.4375,0.8317654728889465
12-10-1981,2.4140625,0.0,387200.0,2.4375,2.4375,0.8317654728889465
13-10-1981,2.421875,0.0,110400.0,2.4453125,2.4296875,0.8290995955467224
14-10-1981,2.421875,0.0,70400.0,2.4375,2.421875,0.8264336585998535
15-10-1981,2.421875,0.0,132800.0,2.4375,2.4296875,0.8290995955467224
16-10-1981,2.4296875,0.0,1144000.0,2.453125,2.4296875,0.8290995955467224
19-10-1981,2.4140625,0.0,216000.0,2.4453125,2.4453125,0.8344317674636841
20-10-1981,2.390625,0.0,1475200.0,2.421875,2.390625,0.8157703280448914
21-10-1981,2.375,0.0,419200.0,2.4140625,2.390625,0.8157703280448914
22-10-1981,2.3125,0.0,283200.0,2.3828125,2.34375,0.7997742295265198
23-10-1981,2.2890625,0.0,372800.0,2.359375,2.296875,0.7837789058685303
26-10-1981,2.2890625,0.0,108800.0,2.328125,2.3046875,0.7864448428153992
27-10-1981,2.3046875,0.0,153600.0,2.3671875,2.3515625,0.8024405241012573
28-10-1981,2.3515625,0.0,648000.0,2.421875,2.3828125,0.813103973865509
29-10-1981,2.3515625,0.0,318400.0,2.3828125,2.359375,0.8051064014434814
30-10-1981,2.3515625,0.0,491200.0,2.390625,2.390625,0.8157703280448914
02-11-1981,2.4140625,0.0,1241600.0,2.46875,2.4375,0.8317654728889465
03-11-1981,2.4453125,0.0,411200.0,2.53125,2.53125,0.8637562990188599
04-11-1981,2.5,0.0,1062400.0,2.53125,2.5078125,0.8557586669921875
05-11-1981,2.5078125,0.0,451200.0,2.5625,2.546875,0.8690882325172424
06-11-1981,2.515625,0.0,161600.0,2.5703125,2.5625,0.8744199872016907
09-11-1981,2.5390625,0.0,91200.0,2.5703125,2.5703125,0.8770861625671387
10-11-1981,2.59375,0.0,137600.0,2.6171875,2.59375,0.8850841522216797
11-11-1981,2.59375,0.0,331200.0,2.6171875,2.6171875,0.8930818438529968
12-11-1981,2.59375,0.0,236800.0,2.640625,2.609375,0.8904159665107727
13-11-1981,2.53125,0.0,358400.0,2.59375,2.5546875,0.8717538714408875
16-11-1981,2.453125,0.0,284800.0,2.53125,2.4765625,0.8450947999954224
17-11-1981,2.46875,0.0,500800.0,2.5,2.4921875,0.8504270315170288
18-11-1981,2.46875,0.0,926400.0,2.5,2.46875,0.8424288630485535
19-11-1981,2.4609375,0.0,518400.0,2.484375,2.4765625,0.8450947999954224
20-11-1981,2.4765625,0.0,86400.0,2.5,2.5,0.8530922532081604
23-11-1981,2.4453125,0.0,190400.0,2.4921875,2.4609375,0.839763343334198
24-11-1981,2.4453125,0.0,150400.0,2.46875,2.4609375,0.839763343334198
25-11-1981,2.4453125,0.0,1275200.0,2.484375,2.453125,0.8370972871780396
27-11-1981,2.453125,0.0,196800.0,2.4765625,2.4765625,0.8450947999954224
30-11-1981,2.4609375,0.0,275200.0,2.53125,2.515625,0.858424723148346
01-12-1981,2.453125,0.0,657600.0,2.5234375,2.484375,0.8477610349655151
02-12-1981,2.4453125,0.0,364800.0,2.5078125,2.484375,0.8477610349655151
03-12-1981,2.4765625,0.0,422400.0,2.515625,2.515625,0.858424723148346
04-12-1981,2.5,0.0,1816000.0,2.53125,2.515625,0.858424723148346
07-12-1981,2.46875,0.0,400000.0,2.53125,2.4921875,0.8504270315170288
08-12-1981,2.4609375,0.0,201600.0,2.4921875,2.46875,0.8424288630485535
09-12-1981,2.4609375,0.0,347200.0,2.4921875,2.484375,0.8477610349655151
10-12-1981,2.4609375,0.0,403200.0,2.5,2.4921875,0.8504270315170288
11-12-1981,2.484375,0.0,281600.0,2.515625,2.515625,0.858424723148346
14-12-1981,2.4375,0.0,860800.0,2.4921875,2.453125,0.8370972871780396
15-12-1981,2.390625,0.0,264000.0,2.453125,2.4453125,0.8344317674636841
16-12-1981,2.4375,0.0,113600.0,2.453125,2.4453125,0.8344317674636841
17-12-1981,2.4375,0.0,363200.0,2.453125,2.4375,0.8317654728889465
18-12-1981,2.421875,0.0,209600.0,2.4453125,2.421875,0.8264336585998535
21-12-1981,2.375,0.0,670400.0,2.4375,2.375,0.810438334941864
22-12-1981,2.359375,0.0,240000.0,2.390625,2.375,0.810438334941864
23-12-1981,2.3515625,0.0,388800.0,2.3828125,2.375,0.810438334941864
24-12-1981,2.3671875,0.0,520000.0,2.3828125,2.3828125,0.813103973865509
28-12-1981,2.3125,0.0,1014400.0,2.375,2.3125,0.7891107797622681
29-12-1981,2.3125,0.0,248000.0,2.328125,2.3125,0.7891107797622681
30-12-1981,2.3125,0.0,195200.0,2.3359375,2.328125,0.7944425344467163
31-12-1981,2.21875,0.0,580800.0,2.375,2.359375,0.8051064014434814
04-01-1982,2.3359375,0.0,728000.0,2.3671875,2.3671875,0.807771623134613
05-01-1982,2.296875,0.0,278400.0,2.359375,2.328125,0.7944425344467163
06-01-1982,2.2890625,0.0,336000.0,2.328125,2.328125,0.7944425344467163
07-01-1982,2.28125,0.0,408000.0,2.3359375,2.296875,0.7837789058685303
08-01-1982,2.2578125,0.0,228800.0,2.3125,2.265625,0.7731152176856995
11-01-1982,2.1875,0.0,5382400.0,2.265625,2.1875,0.7464560866355896
12-01-1982,2.15625,0.0,358400.0,2.2109375,2.203125,0.7517879605293274
13-01-1982,2.171875,0.0,507200.0,2.21875,2.1875,0.7464560866355896
14-01-1982,2.15625,0.0,177600.0,2.1796875,2.1796875,0.743790328502655
15-01-1982,2.140625,0.0,291200.0,2.1875,2.15625,0.7357925772666931
18-01-1982,2.0,0.0,10244800.0,2.1328125,2.0625,0.7038015127182007
19-01-1982,2.0390625,0.0,312000.0,2.0859375,2.0546875,0.7011356353759766
20-01-1982,2.0234375,0.0,492800.0,2.0625,2.046875,0.6984699964523315
21-01-1982,2.0234375,0.0,321600.0,2.046875,2.046875,0.6984699964523315
22-01-1982,2.0,0.0,1499200.0,2.03125,2.03125,0.6931378841400146
25-01-1982,2.0,0.0,403200.0,2.03125,2.015625,0.6878057718276978
26-01-1982,1.96875,0.0,1643200.0,2.015625,2.0,0.6824740767478943
27-01-1982,1.9921875,0.0,345600.0,2.0078125,2.0078125,0.6851401329040527
28-01-1982,1.9921875,0.0,492800.0,2.0390625,2.0390625,0.6958037614822388
29-01-1982,2.0625,0.0,1184000.0,2.09375,2.0859375,0.7117993831634521
01-02-1982,2.03125,0.0,243200.0,2.078125,2.046875,0.6984699964523315
02-02-1982,2.0078125,0.0,283200.0,2.0625,2.0625,0.7038015127182007
03-02-1982,2.0390625,0.0,523200.0,2.0703125,2.0703125,0.7064673900604248
04-02-1982,2.046875,0.0,222400.0,2.078125,2.078125,0.7091335654258728
05-02-1982,2.0703125,0.0,353600.0,2.1484375,2.1484375,0.7331261038780212
08-02-1982,2.078125,0.0,721600.0,2.125,2.078125,0.7091335654258728
09-02-1982,2.015625,0.0,203200.0,2.046875,2.0390625,0.6958037614822388
10-02-1982,2.015625,0.0,596800.0,2.0390625,2.0390625,0.6958037614822388
11-02-1982,1.9296875,0.0,480000.0,2.0390625,1.953125,0.666478157043457
12-02-1982,1.9375,0.0,304000.0,1.9765625,1.9765625,0.6744762659072876
16-02-1982,1.9375,0.0,512000.0,1.984375,1.984375,0.6771422028541565
17-02-1982,1.9609375,0.0,233600.0,2.0,1.9765625,0.6744762659072876
18-02-1982,1.9375,0.0,363200.0,1.9765625,1.9765625,0.6744762659072876
19-02-1982,1.9453125,0.0,192000.0,1.984375,1.96875,0.671810507774353
22-02-1982,1.9375,0.0,1331200.0,2.0234375,1.9453125,0.6638129949569702
23-02-1982,1.9453125,0.0,182400.0,1.96875,1.9609375,0.6691446900367737
24-02-1982,1.921875,0.0,2142400.0,1.9609375,1.953125,0.666478157043457
25-02-1982,1.953125,0.0,889600.0,1.9765625,1.953125,0.666478157043457
26-02-1982,1.9453125,0.0,939200.0,1.96875,1.9609375,0.6691446900367737
01-03-1982,1.9375,0.0,419200.0,1.96875,1.9375,0.6611467003822327
02-03-1982,1.921875,0.0,336000.0,1.953125,1.9296875,0.6584805846214294
03-03-1982,1.890625,0.0,409600.0,1.9296875,1.90625,0.6504834294319153
04-03-1982,1.8828125,0.0,235200.0,1.921875,1.890625,0.6451512575149536
05-03-1982,1.875,0.0,265600.0,1.90625,1.875,0.6398194432258606
08-03-1982,1.84375,0.0,560000.0,1.8828125,1.84375,0.6291558742523193
09-03-1982,1.8125,0.0,1928000.0,1.8515625,1.828125,0.6238240599632263
10-03-1982,1.8203125,0.0,656000.0,1.859375,1.859375,0.6344879865646362
11-03-1982,1.84375,0.0,712000.0,1.9375,1.9375,0.6611467003822327
12-03-1982,1.90625,0.0,336000.0,1.9609375,1.9609375,0.6691446900367737
15-03-1982,1.9453125,0.0,176000.0,2.0,1.9921875,0.6798081994056702
16-03-1982,1.9765625,0.0,998400.0,2.0078125,2.0078125,0.6851401329040527
17-03-1982,1.96875,0.0,952000.0,2.0234375,2.0,0.6824740767478943
18-03-1982,1.9375,0.0,616000.0,2.0,1.96875,0.671810507774353
19-03-1982,1.9375,0.0,812800.0,1.96875,1.96875,0.671810507774353
22-03-1982,1.9375,0.0,342400.0,1.96875,1.9609375,0.6691446900367737
23-03-1982,1.9609375,0.0,1097600.0,2.015625,1.9921875,0.6798081994056702
24-03-1982,2.0,0.0,291200.0,2.03125,2.015625,0.6878057718276978
25-03-1982,1.96875,0.0,1993600.0,2.0,1.9921875,0.6798081994056702
26-03-1982,1.953125,0.0,265600.0,1.9921875,1.9609375,0.6691446900367737
29-03-1982,1.9609375,0.0,44800.0,1.984375,1.984375,0.6771422028541565
30-03-1982,1.9765625,0.0,248000.0,2.0078125,1.9921875,0.6798081994056702
31-03-1982,1.96875,0.0,72000.0,1.984375,1.9765625,0.6744762659072876
01-04-1982,1.96875,0.0,228800.0,2.0,2.0,0.6824740767478943
02-04-1982,1.9765625,0.0,385600.0,2.015625,2.0078125,0.6851401329040527
05-04-1982,2.0,0.0,372800.0,2.03125,2.0078125,0.6851401329040527
06-04-1982,2.0078125,0.0,211200.0,2.0234375,2.015625,0.6878057718276978
07-04-1982,2.0078125,0.0,254400.0,2.03125,2.03125,0.6931378841400146
08-04-1982,2.015625,0.0,155200.0,2.046875,2.0234375,0.6904717087745667
12-04-1982,2.0078125,0.0,131200.0,2.0390625,2.0234375,0.6904717087745667
13-04-1982,2.0234375,0.0,312000.0,2.046875,2.0390625,0.6958037614822388
14-04-1982,2.0234375,0.0,408000.0,2.0546875,2.0546875,0.7011356353759766
15-04-1982,2.0,0.0,2214400.0,2.0546875,2.0078125,0.6851401329040527
16-04-1982,1.984375,0.0,672000.0,2.015625,2.0,0.6824740767478943
19-04-1982,1.9921875,0.0,412800.0,2.015625,2.015625,0.6878057718276978
20-04-1982,2.0,0.0,228800.0,2.015625,2.015625,0.6878057718276978
21-04-1982,2.0,0.0,352000.0,2.03125,2.015625,0.6878057718276978
22-04-1982,2.0,0.0,467200.0,2.03125,2.015625,0.6878057718276978
23-04-1982,2.0078125,0.0,787200.0,2.0546875,2.0546875,0.7011356353759766
26-04-1982,2.0703125,0.0,516800.0,2.1171875,2.1171875,0.7224630117416382
27-04-1982,2.109375,0.0,404800.0,2.15625,2.1171875,0.7224630117416382
28-04-1982,2.1171875,0.0,116800.0,2.1484375,2.125,0.7251291275024414
29-04-1982,2.078125,0.0,249600.0,2.125,2.0859375,0.7117993831634521
30-04-1982,2.046875,0.0,862400.0,2.1328125,2.1328125,0.7277945876121521
03-05-1982,2.09375,0.0,3374400.0,2.1640625,2.15625,0.7357925772666931
04-05-1982,2.1015625,0.0,3448000.0,2.15625,2.1171875,0.7224630117416382
05-05-1982,2.09375,0.0,745600.0,2.140625,2.1171875,0.7224630117416382
06-05-1982,2.1015625,0.0,491200.0,2.140625,2.109375,0.719796895980835
07-05-1982,2.09375,0.0,235200.0,2.125,2.109375,0.719796895980835
10-05-1982,2.09375,0.0,78400.0,2.125,2.1015625,0.7171309590339661
11-05-1982,2.1015625,0.0,164800.0,2.140625,2.1328125,0.7277945876121521
12-05-1982,2.1171875,0.0,316800.0,2.171875,2.140625,0.7304607033729553
13-05-1982,2.0625,0.0,2137600.0,2.1484375,2.078125,0.7091335654258728
14-05-1982,2.0625,0.0,3348800.0,2.109375,2.109375,0.719796895980835
17-05-1982,2.09375,0.0,280000.0,2.125,2.109375,0.719796895980835
18-05-1982,2.1015625,0.0,369600.0,2.125,2.109375,0.719796895980835
19-05-1982,2.109375,0.0,539200.0,2.15625,2.125,0.7251291275024414
20-05-1982,2.1015625,0.0,315200.0,2.140625,2.140625,0.7304607033729553
21-05-1982,2.09375,0.0,737600.0,2.140625,2.125,0.7251291275024414
24-05-1982,2.09375,0.0,81600.0,2.125,2.1015625,0.7171309590339661
25-05-1982,2.0703125,0.0,195200.0,2.109375,2.0859375,0.7117993831634521
26-05-1982,2.0703125,0.0,376000.0,2.09375,2.0703125,0.7064673900604248
27-05-1982,2.015625,0.0,241600.0,2.0703125,2.0703125,0.7064673900604248
28-05-1982,2.0546875,0.0,100800.0,2.0859375,2.078125,0.7091335654258728
01-06-1982,1.96875,0.0,196800.0,2.0859375,1.984375,0.6771422028541565
02-06-1982,1.984375,0.0,427200.0,2.03125,2.03125,0.6931378841400146
03-06-1982,2.0,0.0,928000.0,2.078125,2.015625,0.6878057718276978
04-06-1982,1.921875,0.0,1617600.0,2.0,1.9375,0.6611467003822327
07-06-1982,1.9140625,0.0,307200.0,1.953125,1.921875,0.6558150053024292
08-06-1982,1.890625,0.0,337600.0,1.921875,1.8984375,0.6478174328804016
09-06-1982,1.828125,0.0,2569600.0,1.890625,1.8359375,0.6264898180961609
10-06-1982,1.8203125,0.0,107200.0,1.875,1.8671875,0.6371538043022156
11-06-1982,1.8984375,0.0,646400.0,1.9140625,1.9140625,0.6531491875648499
14-06-1982,1.890625,0.0,726400.0,1.921875,1.921875,0.6558150053024292
15-06-1982,1.890625,0.0,846400.0,1.921875,1.921875,0.6558150053024292
16-06-1982,1.921875,0.0,409600.0,1.9453125,1.9375,0.6611467003822327
17-06-1982,1.90625,0.0,161600.0,1.9296875,1.9296875,0.6584805846214294
18-06-1982,1.90625,0.0,121600.0,1.9453125,1.921875,0.6558150053024292
21-06-1982,1.8828125,0.0,140800.0,1.921875,1.8984375,0.6478174328804016
22-06-1982,1.8828125,0.0,100800.0,1.90625,1.90625,0.6504834294319153
23-06-1982,1.9140625,0.0,182400.0,1.9609375,1.953125,0.666478157043457
24-06-1982,1.953125,0.0,635200.0,1.9921875,1.9609375,0.6691446900367737
25-06-1982,1.9453125,0.0,168000.0,1.984375,1.9765625,0.6744762659072876
28-06-1982,1.984375,0.0,752000.0,2.0234375,2.0,0.6824740767478943
29-06-1982,2.0,0.0,566400.0,2.09375,2.09375,0.7144650816917419
30-06-1982,2.03125,0.0,728000.0,2.0859375,2.078125,0.7091335654258728
01-07-1982,2.0625,0.0,1262400.0,2.0859375,2.0859375,0.7117993831634521
02-07-1982,2.0703125,0.0,228800.0,2.078125,2.078125,0.7091335654258728
06-07-1982,2.046875,0.0,910400.0,2.0859375,2.046875,0.6984699964523315
07-07-1982,2.0,0.0,244800.0,2.0625,2.0,0.6824740767478943
08-07-1982,2.0,0.0,256000.0,2.046875,2.0390625,0.6958037614822388
09-07-1982,2.0390625,0.0,971200.0,2.0625,2.0625,0.7038015127182007
12-07-1982,2.046875,0.0,321600.0,2.09375,2.0625,0.7038015127182007
13-07-1982,2.046875,0.0,1595200.0,2.0703125,2.046875,0.6984699964523315
14-07-1982,2.0,0.0,80000.0,2.03125,2.015625,0.6878057718276978
15-07-1982,2.0,0.0,219200.0,2.046875,2.03125,0.6931378841400146
16-07-1982,2.0,0.0,1366400.0,2.03125,2.0234375,0.6904717087745667
19-07-1982,2.03125,0.0,1960000.0,2.0625,2.046875,0.6984699964523315
20-07-1982,2.046875,0.0,907200.0,2.09375,2.0859375,0.7117993831634521
21-07-1982,2.09375,0.0,1259200.0,2.1796875,2.171875,0.7411242723464966
22-07-1982,2.1640625,0.0,206400.0,2.21875,2.203125,0.7517879605293274
23-07-1982,2.171875,0.0,185600.0,2.2265625,2.1875,0.7464560866355896
26-07-1982,2.1875,0.0,324800.0,2.2421875,2.2421875,0.7651174068450928
27-07-1982,2.2109375,0.0,184000.0,2.2265625,2.2265625,0.7597860097885132
28-07-1982,2.1328125,0.0,358400.0,2.21875,2.140625,0.7304607033729553
29-07-1982,2.109375,0.0,401600.0,2.203125,2.203125,0.7517879605293274
30-07-1982,2.1953125,0.0,336000.0,2.2265625,2.2265625,0.7597860097885132
02-08-1982,2.21875,0.0,564800.0,2.28125,2.2734375,0.7757808566093445
03-08-1982,2.234375,0.0,1036800.0,2.28125,2.25,0.7677839398384094
04-08-1982,2.140625,0.0,4504000.0,2.203125,2.1484375,0.7331261038780212
05-08-1982,2.09375,0.0,241600.0,2.140625,2.1171875,0.7224630117416382
06-08-1982,2.03125,0.0,753600.0,2.1171875,2.03125,0.6931378841400146
09-08-1982,2.0078125,0.0,225600.0,2.0546875,2.0546875,0.7011356353759766
10-08-1982,2.046875,0.0,363200.0,2.078125,2.078125,0.7091335654258728
11-08-1982,2.0703125,0.0,219200.0,2.0859375,2.078125,0.7091335654258728
12-08-1982,2.0703125,0.0,756800.0,2.1015625,2.0859375,0.7117993831634521
13-08-1982,2.0859375,0.0,801600.0,2.1171875,2.109375,0.719796895980835
16-08-1982,2.1015625,0.0,670400.0,2.1328125,2.1171875,0.7224630117416382
17-08-1982,2.125,0.0,614400.0,2.1796875,2.1796875,0.743790328502655
18-08-1982,2.25,0.0,2147200.0,2.34375,2.296875,0.7837789058685303
19-08-1982,2.28125,0.0,1566400.0,2.3125,2.3125,0.7891107797622681
20-08-1982,2.328125,0.0,1852800.0,2.484375,2.4375,0.8317654728889465
23-08-1982,2.4140625,0.0,1672000.0,2.5,2.421875,0.8264336585998535
24-08-1982,2.375,0.0,1491200.0,2.4375,2.40625,0.8211019039154053
25-08-1982,2.375,0.0,1664000.0,2.5078125,2.4375,0.8317654728889465
26-08-1982,2.40625,0.0,1835200.0,2.53125,2.4453125,0.8344317674636841
27-08-1982,2.375,0.0,1766400.0,2.453125,2.40625,0.8211019039154053
30-08-1982,2.40625,0.0,1560000.0,2.515625,2.515625,0.858424723148346
31-08-1982,2.53125,0.0,1078400.0,2.59375,2.53125,0.8637562990188599
01-09-1982,2.515625,0.0,611200.0,2.5625,2.515625,0.858424723148346
02-09-1982,2.390625,0.0,681600.0,2.5234375,2.4765625,0.8450947999954224
03-09-1982,2.4921875,0.0,932800.0,2.5546875,2.5390625,0.8664225339889526
07-09-1982,2.53125,0.0,1057600.0,2.5625,2.546875,0.8690882325172424
08-09-1982,2.53125,0.0,369600.0,2.5546875,2.53125,0.8637562990188599
09-09-1982,2.53125,0.0,905600.0,2.5546875,2.53125,0.8637562990188599
10-09-1982,2.4453125,0.0,1099200.0,2.53125,2.484375,0.8477610349655151
13-09-1982,2.40625,0.0,2040000.0,2.4921875,2.484375,0.8477610349655151
14-09-1982,2.4765625,0.0,827200.0,2.5390625,2.484375,0.8477610349655151
15-09-1982,2.453125,0.0,534400.0,2.515625,2.515625,0.858424723148346
16-09-1982,2.4609375,0.0,1214400.0,2.53125,2.4921875,0.8504270315170288
17-09-1982,2.4453125,0.0,1208000.0,2.515625,2.46875,0.8424288630485535
20-09-1982,2.4375,0.0,584000.0,2.4921875,2.4921875,0.8504270315170288
21-09-1982,2.4765625,0.0,1401600.0,2.515625,2.515625,0.858424723148346
22-09-1982,2.578125,0.0,2398400.0,2.6171875,2.5859375,0.8824183344841003
23-09-1982,2.5390625,0.0,457600.0,2.5625,2.5625,0.8744199872016907
24-09-1982,2.53125,0.0,444800.0,2.5625,2.5625,0.8744199872016907
27-09-1982,2.53125,0.0,627200.0,2.5625,2.546875,0.8690882325172424
28-09-1982,2.546875,0.0,1088000.0,2.59375,2.546875,0.8690882325172424
29-09-1982,2.5,0.0,868800.0,2.5625,2.5,0.8530922532081604
30-09-1982,2.421875,0.0,380800.0,2.484375,2.4609375,0.839763343334198
01-10-1982,2.4453125,0.0,617600.0,2.5,2.5,0.8530922532081604
04-10-1982,2.4765625,0.0,1147200.0,2.515625,2.5078125,0.8557586669921875
05-10-1982,2.5,0.0,1032000.0,2.53125,2.515625,0.858424723148346
06-10-1982,2.515625,0.0,1368000.0,2.5703125,2.5625,0.8744199872016907
07-10-1982,2.5625,0.0,841600.0,2.625,2.609375,0.8904159665107727
08-10-1982,2.578125,0.0,324800.0,2.609375,2.59375,0.8850841522216797
11-10-1982,2.5859375,0.0,542400.0,2.640625,2.6171875,0.8930818438529968
12-10-1982,2.625,0.0,1148800.0,2.6796875,2.6796875,0.9144083261489868
13-10-1982,2.671875,0.0,668800.0,2.84375,2.828125,0.9650614857673645
14-10-1982,2.65625,0.0,795200.0,2.84375,2.65625,0.906411349773407
15-10-1982,2.59375,0.0,521600.0,2.65625,2.6328125,0.8984135389328003
18-10-1982,2.6484375,0.0,326400.0,2.734375,2.734375,0.9330700635910034
19-10-1982,2.75,0.0,448000.0,2.8125,2.8046875,0.9570630192756653
20-10-1982,2.8125,0.0,1268800.0,2.9375,2.875,0.9810563921928406
21-10-1982,2.9140625,0.0,7321600.0,3.0234375,2.96875,1.013047456741333
22-10-1982,3.046875,0.0,2614400.0,3.140625,3.0703125,1.0477038621902466
25-10-1982,2.875,0.0,764800.0,3.0625,2.890625,0.9863887429237366
26-10-1982,2.828125,0.0,988800.0,2.921875,2.921875,0.9970518946647644
27-10-1982,2.984375,0.0,780800.0,3.0703125,3.0703125,1.0477038621902466
28-10-1982,3.0546875,0.0,1020800.0,3.0859375,3.0625,1.0450385808944702
29-10-1982,2.96875,0.0,1156800.0,3.0703125,3.0078125,1.0263773202896118
01-11-1982,2.9453125,0.0,1216000.0,3.0078125,3.0,1.023711085319519
02-11-1982,2.9765625,0.0,1259200.0,3.0390625,3.015625,1.0290428400039673
03-11-1982,3.015625,0.0,1827200.0,3.1796875,3.15625,1.0770297050476074
04-11-1982,3.234375,0.0,2828800.0,3.3515625,3.25,1.1090209484100342
05-11-1982,3.09375,0.0,1425600.0,3.3359375,3.3359375,1.1383458375930786
08-11-1982,3.1875,0.0,732800.0,3.3046875,3.2734375,1.1170175075531006
09-11-1982,3.21875,0.0,1198400.0,3.296875,3.21875,1.0983563661575317
10-11-1982,3.21875,0.0,739200.0,3.2734375,3.234375,1.1036887168884277
11-11-1982,3.15625,0.0,705600.0,3.21875,3.1640625,1.0796953439712524
12-11-1982,3.1640625,0.0,312000.0,3.203125,3.171875,1.0823607444763184
15-11-1982,3.03125,0.0,1032000.0,3.171875,3.0625,1.0450385808944702
16-11-1982,3.015625,0.0,918400.0,3.09375,3.0625,1.0450385808944702
17-11-1982,3.078125,0.0,1840000.0,3.140625,3.109375,1.061033844947815
18-11-1982,3.09375,0.0,504000.0,3.1484375,3.140625,1.0716978311538696
19-11-1982,3.109375,0.0,796800.0,3.1875,3.109375,1.061033844947815
22-11-1982,3.078125,0.0,769600.0,3.2109375,3.078125,1.0503700971603394
23-11-1982,2.921875,0.0,617600.0,3.125,2.921875,0.9970518946647644
24-11-1982,2.9375,0.0,529600.0,3.0625,3.0390625,1.0370408296585083
26-11-1982,3.0546875,0.0,344000.0,3.125,3.109375,1.061033844947815
29-11-1982,3.1171875,0.0,272000.0,3.171875,3.140625,1.0716978311538696
30-11-1982,3.109375,0.0,496000.0,3.171875,3.140625,1.0716978311538696
01-12-1982,3.1875,0.0,611200.0,3.234375,3.203125,1.0930253267288208
02-12-1982,3.203125,0.0,649600.0,3.28125,3.234375,1.1036887168884277
03-12-1982,3.1875,0.0,412800.0,3.25,3.21875,1.0983563661575317
06-12-1982,3.21875,0.0,459200.0,3.265625,3.25,1.1090209484100342
07-12-1982,3.25,0.0,1816000.0,3.3125,3.265625,1.1143524646759033
08-12-1982,3.21875,0.0,244800.0,3.28125,3.21875,1.0983563661575317
09-12-1982,3.15625,0.0,126400.0,3.1875,3.15625,1.0770297050476074
10-12-1982,3.078125,0.0,145600.0,3.1796875,3.09375,1.0557019710540771
13-12-1982,2.984375,0.0,572800.0,3.0625,3.0,1.023711085319519
14-12-1982,3.0,0.0,286400.0,3.078125,3.0,1.023711085319519
15-12-1982,2.96875,0.0,160000.0,3.0,2.9765625,1.0157138109207153
16-12-1982,2.8828125,0.0,1177600.0,2.96875,2.9453125,1.0050499439239502
17-12-1982,3.015625,0.0,291200.0,3.09375,3.09375,1.0557019710540771
20-12-1982,3.046875,0.0,868800.0,3.09375,3.078125,1.0503700971603394
21-12-1982,3.078125,0.0,160000.0,3.109375,3.109375,1.061033844947815
22-12-1982,3.109375,0.0,694400.0,3.234375,3.234375,1.1036887168884277
23-12-1982,3.265625,0.0,291200.0,3.3125,3.28125,1.1196844577789307
27-12-1982,3.109375,0.0,803200.0,3.28125,3.2109375,1.0956907272338867
28-12-1982,3.203125,0.0,744000.0,3.328125,3.296875,1.1250163316726685
29-12-1982,3.234375,0.0,473600.0,3.3046875,3.28125,1.1196844577789307
30-12-1982,3.265625,0.0,315200.0,3.3125,3.265625,1.1143524646759033
31-12-1982,3.2109375,0.0,145600.0,3.25,3.234375,1.1036887168884277
03-01-1983,3.140625,0.0,499200.0,3.171875,3.15625,1.0770297050476074
04-01-1983,3.140625,0.0,353600.0,3.21875,3.21875,1.0983563661575317
05-01-1983,3.234375,0.0,515200.0,3.296875,3.2578125,1.1116862297058105
06-01-1983,3.265625,0.0,1033600.0,3.46875,3.421875,1.1676701307296753
07-01-1983,3.421875,0.0,2430400.0,3.609375,3.5703125,1.2183231115341187
10-01-1983,3.46875,0.0,899200.0,3.5390625,3.5,1.1943303346633911
11-01-1983,3.453125,0.0,830400.0,3.515625,3.5,1.1943303346633911
12-01-1983,3.359375,0.0,593600.0,3.5,3.359375,1.1463428735733032
13-01-1983,3.265625,0.0,724800.0,3.390625,3.3828125,1.1543409824371338
14-01-1983,3.28125,0.0,454400.0,3.40625,3.40625,1.1623384952545166
17-01-1983,3.3828125,0.0,652800.0,3.4140625,3.390625,1.157006859779358
18-01-1983,3.375,0.0,288000.0,3.484375,3.484375,1.188997745513916
19-01-1983,3.375,0.0,1323200.0,3.4921875,3.453125,1.1783337593078613
20-01-1983,3.328125,0.0,425600.0,3.4296875,3.359375,1.1463428735733032
21-01-1983,3.2578125,0.0,241600.0,3.359375,3.28125,1.1196844577789307
24-01-1983,3.15625,0.0,656000.0,3.2421875,3.21875,1.0983563661575317
25-01-1983,3.171875,0.0,332800.0,3.296875,3.21875,1.0983563661575317
26-01-1983,3.21875,0.0,328000.0,3.265625,3.234375,1.1036887168884277
27-01-1983,3.265625,0.0,484800.0,3.40625,3.359375,1.1463428735733032
28-01-1983,3.375,0.0,462400.0,3.4296875,3.40625,1.1623384952545166
31-01-1983,3.40625,0.0,1908800.0,3.4453125,3.4296875,1.1703366041183472
01-02-1983,3.375,0.0,1342400.0,3.453125,3.375,1.1516746282577515
02-02-1983,3.34375,0.0,249600.0,3.3984375,3.375,1.1516746282577515
03-02-1983,3.3515625,0.0,200000.0,3.40625,3.390625,1.157006859779358
04-02-1983,3.34375,0.0,1100800.0,3.421875,3.40625,1.1623384952545166
07-02-1983,3.390625,0.0,1614400.0,3.4609375,3.421875,1.1676701307296753
08-02-1983,3.359375,0.0,667200.0,3.421875,3.375,1.1516746282577515
09-02-1983,3.3125,0.0,299200.0,3.375,3.3671875,1.1490087509155273
10-02-1983,3.375,0.0,784000.0,3.40625,3.40625,1.1623384952545166
11-02-1983,3.390625,0.0,768000.0,3.4140625,3.40625,1.1623384952545166
14-02-1983,3.390625,0.0,532800.0,3.40625,3.390625,1.157006859779358
15-02-1983,3.328125,0.0,1260800.0,3.390625,3.34375,1.1410117149353027
16-02-1983,3.34375,0.0,881600.0,3.3984375,3.375,1.1516746282577515
17-02-1983,3.34375,0.0,2440000.0,3.421875,3.390625,1.157006859779358
18-02-1983,3.375,0.0,846400.0,3.421875,3.375,1.1516746282577515
22-02-1983,3.375,0.0,1120000.0,3.40625,3.3984375,1.1596726179122925
23-02-1983,3.34375,0.0,1406400.0,3.3984375,3.3984375,1.1596726179122925
24-02-1983,3.4140625,0.0,2683200.0,3.5625,3.5625,1.215657353401184
25-02-1983,3.53125,0.0,2368000.0,3.6015625,3.5390625,1.207659363746643
28-02-1983,3.578125,0.0,1920000.0,3.625,3.6171875,1.2343182563781738
01-03-1983,3.625,0.0,1411200.0,3.703125,3.6875,1.2583117485046387
02-03-1983,3.6953125,0.0,1604800.0,3.75,3.7421875,1.2769733667373657
03-03-1983,3.71875,0.0,1451200.0,3.765625,3.71875,1.2689759731292725
04-03-1983,3.671875,0.0,840000.0,3.734375,3.703125,1.2636432647705078
07-03-1983,3.703125,0.0,425600.0,3.734375,3.71875,1.2689759731292725
08-03-1983,3.65625,0.0,1718400.0,3.734375,3.65625,1.2476481199264526
09-03-1983,3.640625,0.0,366400.0,3.6875,3.671875,1.2529796361923218
10-03-1983,3.6875,0.0,595200.0,3.7265625,3.6875,1.2583117485046387
11-03-1983,3.671875,0.0,548800.0,3.6953125,3.6953125,1.2609777450561523
14-03-1983,3.671875,0.0,542400.0,3.734375,3.7265625,1.2716413736343384
15-03-1983,3.6953125,0.0,740800.0,3.7265625,3.7265625,1.2716413736343384
16-03-1983,3.734375,0.0,1308800.0,3.7578125,3.75,1.2796388864517212
17-03-1983,3.75,0.0,859200.0,3.828125,3.8125,1.3009668588638306
18-03-1983,3.8125,0.0,1619200.0,4.0,3.984375,1.3596163988113403
21-03-1983,3.875,0.0,937600.0,3.9765625,3.90625,1.332956314086914
22-03-1983,3.90625,0.0,1076800.0,3.96875,3.9375,1.343621015548706
23-03-1983,3.921875,0.0,940800.0,3.9609375,3.921875,1.3382893800735474
24-03-1983,3.875,0.0,536000.0,3.9296875,3.890625,1.3276259899139404
25-03-1983,3.859375,0.0,564800.0,3.8984375,3.875,1.3222934007644653
28-03-1983,3.859375,0.0,416000.0,3.8984375,3.890625,1.3276259899139404
29-03-1983,3.859375,0.0,576000.0,3.890625,3.859375,1.3169611692428589
30-03-1983,3.7890625,0.0,403200.0,3.8671875,3.8203125,1.3036328554153442
31-03-1983,3.8359375,0.0,547200.0,3.875,3.84375,1.3116300106048584
04-04-1983,3.84375,0.0,168000.0,3.875,3.859375,1.3169611692428589
05-04-1983,3.84375,0.0,947200.0,3.875,3.859375,1.3169611692428589
06-04-1983,3.8125,3.84375,960000.0,3.859375,3.84375,1.3116300106048584
07-04-1983,3.828125,3.859375,464000.0,3.859375,3.84375,1.3116300106048584
08-04-1983,3.75,3.84375,219200.0,3.84375,3.765625,1.2849712371826172
11-04-1983,3.75,3.765625,387200.0,3.796875,3.765625,1.2849712371826172
12-04-1983,3.78125,3.796875,313600.0,3.828125,3.828125,1.3062983751296997
13-04-1983,3.84375,3.84375,401600.0,3.90625,3.90625,1.332956314086914
14-04-1983,3.9140625,3.9375,316800.0,3.953125,3.9375,1.343621015548706
15-04-1983,3.9140625,3.953125,286400.0,3.9609375,3.9140625,1.3356233835220337
18-04-1983,3.888671875,3.9140625,337600.0,3.9296875,3.9296875,1.3409550189971924
19-04-1983,3.8984375,3.9296875,494400.0,3.9765625,3.9765625,1.356950044631958
20-04-1983,3.96875,3.9765625,198400.0,3.9921875,3.984375,1.3596163988113403
21-04-1983,3.953125,3.984375,465600.0,4.015625,3.953125,1.3489525318145752
22-04-1983,3.9375,3.9609375,182400.0,4.0,3.953125,1.3489525318145752
25-04-1983,3.90625,3.953125,468800.0,4.0,3.96875,1.354284405708313
26-04-1983,3.96875,3.9921875,272000.0,4.015625,4.0,1.3649481534957886
27-04-1983,4.0,4.046875,387200.0,4.09375,4.0234375,1.372945785522461
28-04-1983,4.015625,4.03125,571200.0,4.046875,4.0390625,1.3782778978347778
29-04-1983,4.0390625,4.0625,619200.0,4.0859375,4.0859375,1.3942737579345703
02-05-1983,4.046875,4.0859375,670400.0,4.1171875,4.0546875,1.3836097717285156
03-05-1983,4.0,4.0234375,428800.0,4.0390625,4.0390625,1.3782778978347778
04-05-1983,3.9765625,4.0078125,451200.0,4.03125,3.9921875,1.3748362064361572
05-05-1983,3.921875,3.96875,740800.0,4.0078125,3.9375,1.3560023307800293
06-05-1983,3.953125,3.953125,803200.0,4.078125,4.046875,1.3936688899993896
09-05-1983,4.0,4.015625,553600.0,4.0625,4.0546875,1.396359920501709
10-05-1983,4.03125,4.0703125,492800.0,4.0703125,4.03125,1.3882880210876465
11-05-1983,4.0,4.0390625,252800.0,4.046875,4.0234375,1.3855979442596436
12-05-1983,3.96875,4.0234375,396800.0,4.03125,3.9765625,1.3694545030593872
13-05-1983,3.9609375,3.9921875,225600.0,3.9921875,3.984375,1.372145175933838
16-05-1983,3.9375,3.96875,356800.0,4.0,4.0,1.3775266408920288
17-05-1983,3.9765625,4.0,288000.0,4.015625,4.015625,1.3829070329666138
18-05-1983,4.0078125,4.0078125,825600.0,4.140625,4.03125,1.3882880210876465
19-05-1983,3.921875,3.984375,1417600.0,3.984375,3.953125,1.361383080482483
20-05-1983,3.9375,3.953125,321600.0,4.0078125,4.0078125,1.38021719455719
23-05-1983,4.0078125,4.015625,488000.0,4.0625,4.0390625,1.3909789323806763
24-05-1983,4.046875,4.046875,355200.0,4.1171875,4.1171875,1.417883276939392
25-05-1983,4.078125,4.09375,580800.0,4.1171875,4.109375,1.4151930809020996
26-05-1983,4.078125,4.09375,1388800.0,4.25,4.203125,1.44747793674469
27-05-1983,4.15625,4.203125,209600.0,4.203125,4.1640625,1.4340267181396484
31-05-1983,4.078125,4.1640625,601600.0,4.171875,4.09375,1.409812569618225
01-06-1983,4.0625,4.0625,488000.0,4.1015625,4.1015625,1.4125032424926758
02-06-1983,3.984375,4.109375,366400.0,4.1171875,4.03125,1.3882880210876465
03-06-1983,3.96875,4.015625,1065600.0,4.046875,4.03125,1.3882880210876465
06-06-1983,4.0546875,4.0625,5444800.0,4.078125,4.0703125,1.4017406702041626
07-06-1983,4.03125,4.0859375,457600.0,4.0859375,4.046875,1.3936688899993896
08-06-1983,4.0078125,4.046875,444800.0,4.0546875,4.0078125,1.38021719455719
09-06-1983,3.984375,4.015625,427200.0,4.0234375,4.0078125,1.38021719455719
10-06-1983,4.015625,4.0234375,1878400.0,4.0625,4.0625,1.399049997329712
13-06-1983,4.0625,4.0625,1062400.0,4.09375,4.078125,1.4044307470321655
14-06-1983,4.078125,4.078125,272000.0,4.109375,4.109375,1.4151930809020996
15-06-1983,4.1015625,4.109375,592000.0,4.125,4.1171875,1.417883276939392
16-06-1983,4.125,4.125,628800.0,4.15625,4.15625,1.4313366413116455
17-06-1983,4.125,4.15625,1081600.0,4.1640625,4.125,1.4205740690231323
20-06-1983,4.1015625,4.109375,222400.0,4.140625,4.1171875,1.417883276939392
21-06-1983,4.046875,4.1015625,340800.0,4.1171875,4.09375,1.409812569618225
22-06-1983,4.0625,4.0859375,435200.0,4.109375,4.09375,1.409812569618225
23-06-1983,4.0703125,4.09375,145600.0,4.109375,4.0703125,1.4017406702041626
24-06-1983,4.0625,4.0703125,212800.0,4.09375,4.09375,1.409812569618225
27-06-1983,4.0625,4.0703125,609600.0,4.0859375,4.078125,1.4044307470321655
28-06-1983,4.046875,4.09375,428800.0,4.109375,4.046875,1.3936688899993896
29-06-1983,3.9375,4.0390625,1552000.0,4.0390625,3.9375,1.3560023307800293
30-06-1983,3.921875,3.9375,534400.0,3.984375,3.96875,1.3667640686035156
01-07-1983,3.953125,3.953125,947200.0,4.0234375,4.0234375,1.3855979442596436
05-07-1983,3.96875,4.0078125,155200.0,4.0078125,3.9921875,1.3748362064361572
06-07-1983,3.9375,3.96875,217600.0,3.9921875,3.984375,1.372145175933838
07-07-1983,3.921875,3.984375,452800.0,3.984375,3.96875,1.3667640686035156
08-07-1983,3.9609375,3.96875,152000.0,3.984375,3.984375,1.372145175933838
11-07-1983,3.9765625,3.984375,395200.0,3.9921875,3.9765625,1.3694545030593872
12-07-1983,3.90625,3.9765625,569600.0,3.9765625,3.90625,1.3452401161193848
13-07-1983,3.859375,3.890625,291200.0,3.921875,3.8671875,1.331788182258606
14-07-1983,3.875,3.90625,419200.0,3.9375,3.8984375,1.3425495624542236
15-07-1983,3.8125,3.90625,329600.0,3.9140625,3.828125,1.3183358907699585
18-07-1983,3.78125,3.8046875,827200.0,3.828125,3.8125,1.3129551410675049
19-07-1983,3.796875,3.8046875,497600.0,3.8203125,3.8125,1.3129551410675049
20-07-1983,3.8125,3.8125,633600.0,3.875,3.875,1.3344782590866089
21-07-1983,4.0,4.03125,681600.0,4.03125,4.0,1.3775266408920288
22-07-1983,4.015625,4.0703125,747200.0,4.125,4.125,1.4205740690231323
25-07-1983,4.1484375,4.1484375,441600.0,4.2109375,4.2109375,1.4501680135726929
26-07-1983,4.21875,4.21875,814400.0,4.3125,4.3125,1.485145926475525
27-07-1983,4.1875,4.3125,531200.0,4.3125,4.1953125,1.4447883367538452
28-07-1983,4.0625,4.203125,384000.0,4.2109375,4.0859375,1.4071216583251953
29-07-1983,3.953125,4.03125,771200.0,4.0546875,3.9921875,1.3748362064361572
01-08-1983,3.8671875,3.90625,1000000.0,3.921875,3.9140625,1.3479310274124146
02-08-1983,3.90625,3.9375,254400.0,3.953125,3.9140625,1.3479310274124146
03-08-1983,3.84375,3.890625,656000.0,3.90625,3.875,1.3344782590866089
04-08-1983,3.65625,3.796875,812800.0,3.84375,3.7109375,1.2913081645965576
05-08-1983,3.6875,3.6875,881600.0,3.7578125,3.734375,1.2994641065597534
08-08-1983,3.703125,3.703125,472000.0,3.828125,3.734375,1.2994641065597534
09-08-1983,3.65625,3.765625,2072000.0,3.765625,3.671875,1.2777159214019775
10-08-1983,3.5,3.640625,1752000.0,3.640625,3.53125,1.2287814617156982
11-08-1983,3.5,3.53125,923200.0,3.609375,3.5625,1.2396557331085205
12-08-1983,3.578125,3.59375,320000.0,3.65625,3.6328125,1.2641226053237915
15-08-1983,3.6640625,3.6640625,304000.0,3.765625,3.75,1.304901361465454
16-08-1983,3.6328125,3.75,900800.0,3.75,3.671875,1.2777159214019775
17-08-1983,3.65625,3.65625,868800.0,3.75,3.734375,1.2994641065597534
18-08-1983,3.703125,3.765625,305600.0,3.796875,3.7109375,1.2913081645965576
19-08-1983,3.703125,3.71875,187200.0,3.7421875,3.734375,1.2994641065597534
22-08-1983,3.734375,3.7421875,1060800.0,3.8125,3.7421875,1.3021817207336426
23-08-1983,3.75,3.7734375,288000.0,3.8125,3.7890625,1.3184937238693237
24-08-1983,3.7265625,3.765625,225600.0,3.765625,3.734375,1.2994641065597534
25-08-1983,3.7109375,3.71875,550400.0,3.8125,3.8046875,1.3239303827285767
26-08-1983,3.8125,3.8125,433600.0,3.90625,3.90625,1.359271764755249
29-08-1983,3.8828125,3.921875,259200.0,3.9609375,3.9453125,1.3728642463684082
30-08-1983,3.953125,3.953125,1729600.0,4.0703125,4.0,1.3918938636779785
31-08-1983,3.96875,3.96875,924800.0,3.984375,3.984375,1.3864564895629883
01-09-1983,3.96875,3.96875,502400.0,4.0625,4.046875,1.4082046747207642
02-09-1983,4.046875,4.0625,310400.0,4.125,4.125,1.4353909492492676
06-09-1983,4.15625,4.171875,457600.0,4.203125,4.1875,1.4571393728256226
07-09-1983,4.21875,4.21875,1228800.0,4.3359375,4.3359375,1.5087921619415283
08-09-1983,4.3203125,4.34375,628800.0,4.375,4.359375,1.5169469118118286
09-09-1983,4.28125,4.359375,2353600.0,4.375,4.28125,1.4897621870040894
12-09-1983,4.25,4.296875,604800.0,4.375,4.2578125,1.4816068410873413
13-09-1983,4.125,4.265625,381600.0,4.265625,4.1875,1.4571393728256226
14-09-1983,4.15625,4.21875,126400.0,4.21875,4.203125,1.4625755548477173
15-09-1983,4.1875,4.203125,356800.0,4.21875,4.21875,1.468013882637024
16-09-1983,4.0625,4.1875,581600.0,4.1875,4.09375,1.4245166778564453
19-09-1983,4.09375,4.125,172800.0,4.21875,4.171875,1.4517022371292114
20-09-1983,4.140625,4.140625,395200.0,4.25,4.25,1.4788872003555298
21-09-1983,4.203125,4.25,999200.0,4.46875,4.46875,1.555006504058838
22-09-1983,4.375,4.46875,1304000.0,4.46875,4.4375,1.5441333055496216
23-09-1983,4.40625,4.421875,452800.0,4.546875,4.546875,1.5821925401687622
26-09-1983,4.46875,4.546875,338400.0,4.578125,4.484375,1.5604442358016968
27-09-1983,4.4375,4.5,402400.0,4.53125,4.5,1.5658811330795288
28-09-1983,4.453125,4.46875,150400.0,4.53125,4.453125,1.549570918083191
29-09-1983,4.34375,4.4375,211200.0,4.5,4.34375,1.5115100145339966
30-09-1983,4.09375,4.28125,1076800.0,4.28125,4.109375,1.4299540519714355
03-10-1983,4.015625,4.109375,313600.0,4.109375,4.109375,1.4299540519714355
04-10-1983,4.078125,4.078125,366400.0,4.265625,4.234375,1.4734505414962769
05-10-1983,4.15625,4.1875,376000.0,4.25,4.25,1.4788872003555298
06-10-1983,4.21875,4.25,899200.0,4.390625,4.34375,1.5115100145339966
07-10-1983,4.5625,4.5625,759200.0,4.625,4.609375,1.6039410829544067
10-10-1983,4.515625,4.5625,546400.0,4.5625,4.515625,1.5713176727294922
11-10-1983,4.5,4.5625,453600.0,4.59375,4.5,1.5658811330795288
12-10-1983,4.46875,4.5,406400.0,4.578125,4.5625,1.5876293182373047
13-10-1983,4.5625,4.625,558400.0,4.65625,4.578125,1.5930660963058472
14-10-1983,4.515625,4.5625,148000.0,4.609375,4.546875,1.5821925401687622
17-10-1983,4.375,4.53125,324000.0,4.53125,4.40625,1.5332587957382202
18-10-1983,4.375,4.515625,324000.0,4.53125,4.40625,1.5332587957382202
19-10-1983,4.375,4.421875,2216000.0,4.5625,4.40625,1.5332587957382202
20-10-1983,4.40625,4.4375,604800.0,4.53125,4.46875,1.555006504058838
21-10-1983,4.453125,4.453125,1336000.0,4.5625,4.53125,1.5767549276351929
24-10-1983,4.5,4.53125,313600.0,4.578125,4.5625,1.5876293182373047
25-10-1983,4.53125,4.5625,668800.0,4.59375,4.546875,1.5821925401687622
26-10-1983,4.453125,4.546875,351200.0,4.578125,4.515625,1.5713176727294922
27-10-1983,4.484375,4.5,41600.0,4.5625,4.484375,1.5604442358016968
28-10-1983,4.484375,4.484375,607200.0,4.53125,4.5,1.5658811330795288
31-10-1983,4.515625,4.53125,478400.0,4.59375,4.5625,1.5876293182373047
01-11-1983,4.4375,4.578125,793600.0,4.578125,4.46875,1.555006504058838
02-11-1983,4.453125,4.46875,877600.0,4.5625,4.546875,1.5821925401687622
03-11-1983,4.453125,4.53125,236000.0,4.53125,4.46875,1.5688074827194214
04-11-1983,4.34375,4.375,336800.0,4.453125,4.34375,1.5249252319335938
07-11-1983,4.25,4.375,408000.0,4.40625,4.28125,1.5029832124710083
08-11-1983,4.203125,4.28125,435200.0,4.28125,4.203125,1.475556492805481
09-11-1983,4.203125,4.234375,176800.0,4.28125,4.25,1.492012619972229
10-11-1983,4.1875,4.25,495200.0,4.28125,4.203125,1.475556492805481
11-11-1983,4.21875,4.234375,1606400.0,4.3125,4.3125,1.51395583152771
14-11-1983,4.328125,4.328125,616000.0,4.4375,4.375,1.5358963012695312
15-11-1983,4.34375,4.359375,920800.0,4.390625,4.34375,1.5249252319335938
16-11-1983,4.296875,4.3125,454400.0,4.40625,4.40625,1.546866774559021
17-11-1983,4.359375,4.359375,792000.0,4.421875,4.390625,1.5413819551467896
18-11-1983,4.328125,4.359375,531200.0,4.390625,4.390625,1.5413819551467896
21-11-1983,4.375,4.421875,281600.0,4.4375,4.40625,1.546866774559021
22-11-1983,4.40625,4.4375,636800.0,4.5625,4.53125,1.5907485485076904
23-11-1983,4.546875,4.546875,619200.0,4.65625,4.578125,1.6072051525115967
25-11-1983,4.59375,4.625,273600.0,4.625,4.59375,1.6126909255981445
28-11-1983,4.53125,4.59375,770400.0,4.625,4.5625,1.6017197370529175
29-11-1983,4.4375,4.5625,1019200.0,4.5625,4.4375,1.5578378438949585
30-11-1983,4.46875,4.5,844000.0,4.546875,4.515625,1.585263967514038
01-12-1983,4.484375,4.484375,309600.0,4.546875,4.5,1.5797783136367798
02-12-1983,4.46875,4.46875,124800.0,4.5625,4.546875,1.5962344408035278
05-12-1983,4.4375,4.515625,754400.0,4.515625,4.5,1.5797783136367798
06-12-1983,4.46875,4.515625,184000.0,4.515625,4.46875,1.5688074827194214
07-12-1983,4.4375,4.4375,735200.0,4.5,4.4375,1.5578378438949585
08-12-1983,4.40625,4.46875,628800.0,4.46875,4.4375,1.5578378438949585
09-12-1983,4.40625,4.40625,500000.0,4.453125,4.4375,1.5578378438949585
12-12-1983,4.390625,4.390625,120000.0,4.4375,4.390625,1.5413819551467896
13-12-1983,4.375,4.40625,100000.0,4.453125,4.40625,1.546866774559021
14-12-1983,4.34375,4.375,1194400.0,4.40625,4.34375,1.5249252319335938
15-12-1983,4.25,4.25,192800.0,4.3125,4.265625,1.497497797012329
16-12-1983,4.1875,4.265625,640800.0,4.28125,4.234375,1.4865278005599976
19-12-1983,4.203125,4.203125,1264000.0,4.375,4.296875,1.5084688663482666
20-12-1983,4.28125,4.28125,405600.0,4.375,4.296875,1.5084688663482666
21-12-1983,4.21875,4.296875,792800.0,4.3125,4.3125,1.51395583152771
22-12-1983,4.25,4.3125,403200.0,4.34375,4.25,1.492012619972229
23-12-1983,4.203125,4.203125,127200.0,4.25,4.21875,1.4810423851013184
27-12-1983,4.234375,4.234375,384800.0,4.328125,4.328125,1.519439458847046
28-12-1983,4.25,4.3125,1399200.0,4.328125,4.296875,1.5084688663482666
29-12-1983,4.296875,4.3125,188800.0,4.4375,4.4375,1.5578378438949585
30-12-1983,4.34375,4.46875,563200.0,4.46875,4.359375,1.530410647392273
03-01-1984,4.328125,4.328125,460000.0,4.453125,4.34375,1.5249252319335938
04-01-1984,4.3125,4.328125,1320800.0,4.375,4.34375,1.5249252319335938
05-01-1984,4.34375,4.375,1296000.0,4.609375,4.5625,1.6017197370529175
06-01-1984,4.53125,4.59375,693600.0,4.625,4.59375,1.6126909255981445
09-01-1984,4.578125,4.59375,900800.0,4.75,4.671875,1.6401180028915405
10-01-1984,4.578125,4.703125,532000.0,4.71875,4.578125,1.6072051525115967
11-01-1984,4.5,4.5625,502400.0,4.609375,4.578125,1.6072051525115967
12-01-1984,4.46875,4.53125,204000.0,4.5625,4.5,1.5797783136367798
13-01-1984,4.3125,4.4375,294400.0,4.4375,4.375,1.5358963012695312
16-01-1984,4.3125,4.34375,391200.0,4.421875,4.421875,1.5523526668548584
17-01-1984,4.375,4.421875,351200.0,4.4375,4.421875,1.5523526668548584
18-01-1984,4.34375,4.421875,552800.0,4.4375,4.375,1.5358963012695312
19-01-1984,4.40625,4.40625,529600.0,4.46875,4.4375,1.5578378438949585
20-01-1984,4.453125,4.484375,268000.0,4.484375,4.453125,1.5633227825164795
23-01-1984,4.296875,4.4375,2306400.0,4.4375,4.296875,1.5084688663482666
24-01-1984,4.21875,4.296875,504800.0,4.328125,4.21875,1.4810423851013184
25-01-1984,4.1875,4.25,560800.0,4.296875,4.21875,1.4810423851013184
26-01-1984,4.0625,4.15625,846400.0,4.1875,4.15625,1.4591007232666016
27-01-1984,4.09375,4.125,588800.0,4.1875,4.125,1.4481301307678223
30-01-1984,3.96875,4.078125,643200.0,4.078125,4.0,1.4042472839355469
31-01-1984,3.96875,4.0,533600.0,4.09375,4.0,1.4042472839355469
01-02-1984,3.8125,4.0,642400.0,4.0625,3.96875,1.3932771682739258
02-02-1984,3.859375,3.921875,502400.0,3.953125,3.875,1.360365390777588
03-02-1984,3.90625,3.90625,748800.0,4.0,3.9375,1.3823060989379883
06-02-1984,3.859375,3.890625,1136800.0,3.96875,3.9375,1.3823060989379883
07-02-1984,3.875,3.921875,891200.0,3.953125,3.953125,1.387791395187378
08-02-1984,3.921875,4.03125,405600.0,4.0625,3.9375,1.3823060989379883
09-02-1984,3.8125,3.921875,765600.0,3.96875,3.84375,1.3493942022323608
10-02-1984,3.71875,3.84375,756000.0,3.875,3.78125,1.3274532556533813
13-02-1984,3.71875,3.796875,352000.0,3.796875,3.765625,1.321967363357544
14-02-1984,3.625,3.78125,989600.0,3.78125,3.75,1.3306162357330322
15-02-1984,3.59375,3.75,422400.0,3.75,3.625,1.2862621545791626
16-02-1984,3.546875,3.671875,396800.0,3.6875,3.625,1.2862621545791626
17-02-1984,3.421875,3.625,993600.0,3.640625,3.46875,1.2308204174041748
21-02-1984,3.4375,3.484375,616000.0,3.5,3.484375,1.2363654375076294
22-02-1984,3.4375,3.484375,3064800.0,3.609375,3.578125,1.2696303129196167
23-02-1984,3.4375,3.578125,684000.0,3.578125,3.546875,1.2585406303405762
24-02-1984,3.53125,3.5625,696000.0,3.625,3.59375,1.2751737833023071
27-02-1984,3.640625,3.671875,732800.0,3.8125,3.78125,1.3417054414749146
28-02-1984,3.625,3.78125,644800.0,3.78125,3.65625,1.297351360321045
29-02-1984,3.65625,3.65625,277600.0,3.796875,3.734375,1.325072169303894
01-03-1984,3.6875,3.75,355200.0,3.8125,3.78125,1.3417054414749146
02-03-1984,3.6875,3.75,1381600.0,3.8125,3.78125,1.3417054414749146
05-03-1984,3.71875,3.8125,566400.0,3.90625,3.71875,1.319528341293335
06-03-1984,3.71875,3.75,408800.0,3.8125,3.765625,1.3361607789993286
07-03-1984,3.6875,3.71875,195200.0,3.8125,3.75,1.3306162357330322
08-03-1984,3.65625,3.734375,291200.0,3.765625,3.71875,1.319528341293335
09-03-1984,3.65625,3.75,484000.0,3.75,3.65625,1.297351360321045
12-03-1984,3.671875,3.671875,291200.0,3.796875,3.75,1.3306162357330322
13-03-1984,3.78125,3.78125,470400.0,3.875,3.8125,1.3527939319610596
14-03-1984,3.78125,3.8125,1076000.0,3.859375,3.8125,1.3527939319610596
15-03-1984,3.78125,3.8125,289600.0,3.859375,3.8125,1.3527939319610596
16-03-1984,3.890625,3.90625,772000.0,3.9375,3.921875,1.3916033506393433
19-03-1984,3.8125,3.890625,313600.0,3.890625,3.859375,1.369425892829895
20-03-1984,3.796875,3.828125,220800.0,3.859375,3.859375,1.369425892829895
21-03-1984,3.828125,3.828125,252800.0,3.9375,3.875,1.3749712705612183
22-03-1984,3.78125,3.90625,209600.0,3.90625,3.828125,1.358337640762329
23-03-1984,3.75,3.8125,304800.0,3.84375,3.78125,1.3417054414749146
26-03-1984,3.75,3.78125,122400.0,3.8125,3.796875,1.3472496271133423
27-03-1984,3.75,3.765625,103200.0,3.8125,3.796875,1.3472496271133423
28-03-1984,3.78125,3.796875,248800.0,3.828125,3.8125,1.3527939319610596
29-03-1984,3.765625,3.828125,260800.0,3.828125,3.796875,1.3472496271133423
30-03-1984,3.71875,3.796875,354400.0,3.8125,3.796875,1.3472496271133423
02-04-1984,3.640625,3.765625,433600.0,3.796875,3.640625,1.2918071746826172
03-04-1984,3.625,3.640625,559200.0,3.71875,3.6875,1.30843985080719
04-04-1984,3.65625,3.65625,249600.0,3.71875,3.703125,1.3139839172363281
05-04-1984,3.65625,3.703125,140800.0,3.71875,3.703125,1.3139839172363281
06-04-1984,3.640625,3.671875,188000.0,3.6875,3.65625,1.297351360321045
09-04-1984,3.5,3.6875,860800.0,3.71875,3.515625,1.2474530935287476
10-04-1984,3.453125,3.5,480800.0,3.53125,3.453125,1.2252756357192993
11-04-1984,3.390625,3.4375,2084800.0,3.453125,3.4375,1.2197314500808716
12-04-1984,3.484375,3.484375,885600.0,3.578125,3.546875,1.2585406303405762
13-04-1984,3.4375,3.578125,2246400.0,3.59375,3.484375,1.2363654375076294
16-04-1984,3.421875,3.5,888800.0,3.5,3.46875,1.2308204174041748
17-04-1984,3.484375,3.5,1244800.0,3.546875,3.5,1.2419086694717407
18-04-1984,3.5,3.515625,1323200.0,3.53125,3.515625,1.2474530935287476
19-04-1984,3.5,3.53125,290400.0,3.578125,3.5625,1.2640864849090576
23-04-1984,3.546875,3.59375,242400.0,3.609375,3.5625,1.2640864849090576
24-04-1984,3.484375,3.53125,612800.0,3.609375,3.5,1.2419086694717407
25-04-1984,3.515625,3.53125,840800.0,3.59375,3.5625,1.2640864849090576
26-04-1984,3.59375,3.59375,1172800.0,3.75,3.703125,1.3139839172363281
27-04-1984,3.703125,3.734375,596800.0,3.8125,3.75,1.3306162357330322
30-04-1984,3.703125,3.75,315200.0,3.796875,3.78125,1.3417054414749146
01-05-1984,3.78125,3.796875,473600.0,3.84375,3.84375,1.3638817071914673
02-05-1984,3.78125,3.859375,392800.0,3.875,3.859375,1.369425892829895
03-05-1984,3.78125,3.890625,353600.0,3.890625,3.828125,1.358337640762329
04-05-1984,3.59375,3.78125,682400.0,3.796875,3.65625,1.3127833604812622
07-05-1984,3.65625,3.71875,988000.0,3.75,3.75,1.3464438915252686
08-05-1984,3.71875,3.75,811200.0,3.828125,3.8125,1.3688857555389404
09-05-1984,3.765625,3.8125,752000.0,3.875,3.78125,1.3576651811599731
10-05-1984,3.734375,3.78125,208800.0,3.78125,3.78125,1.3576651811599731
11-05-1984,3.5625,3.78125,575200.0,3.78125,3.703125,1.3296133279800415
14-05-1984,3.578125,3.71875,273600.0,3.71875,3.625,1.3015625476837158
15-05-1984,3.5625,3.625,702400.0,3.640625,3.578125,1.2847319841384888
16-05-1984,3.453125,3.5625,1334400.0,3.5625,3.5625,1.2791223526000977
17-05-1984,3.46875,3.53125,1342400.0,3.5625,3.46875,1.245461106300354
18-05-1984,3.40625,3.453125,908800.0,3.5,3.421875,1.228630781173706
21-05-1984,3.390625,3.40625,536800.0,3.46875,3.421875,1.228630781173706
22-05-1984,3.28125,3.421875,1011200.0,3.421875,3.34375,1.200579285621643
23-05-1984,3.34375,3.359375,583200.0,3.421875,3.390625,1.2174094915390015
24-05-1984,3.296875,3.375,1495200.0,3.40625,3.34375,1.200579285621643
25-05-1984,3.28125,3.375,728000.0,3.40625,3.3125,1.1893584728240967
29-05-1984,3.1875,3.34375,768000.0,3.359375,3.25,1.1669180393218994
30-05-1984,3.125,3.28125,3813600.0,3.28125,3.15625,1.1332576274871826
31-05-1984,3.09375,3.109375,1299200.0,3.171875,3.125,1.1220368146896362
01-06-1984,3.171875,3.1875,1281600.0,3.234375,3.203125,1.1500880718231201
04-06-1984,3.21875,3.21875,2139200.0,3.46875,3.375,1.211800217628479
05-06-1984,3.28125,3.40625,825600.0,3.40625,3.34375,1.200579285621643
06-06-1984,3.40625,3.40625,440000.0,3.46875,3.46875,1.245461106300354
07-06-1984,3.46875,3.46875,6442400.0,3.515625,3.515625,1.262291431427002
08-06-1984,3.484375,3.53125,396800.0,3.546875,3.53125,1.26790189743042
11-06-1984,3.515625,3.5625,323200.0,3.5625,3.53125,1.26790189743042
12-06-1984,3.453125,3.484375,284000.0,3.5,3.5,1.2566808462142944
13-06-1984,3.484375,3.5,260800.0,3.53125,3.515625,1.262291431427002
14-06-1984,3.421875,3.5,861600.0,3.515625,3.453125,1.239850401878357
15-06-1984,3.375,3.453125,334400.0,3.484375,3.40625,1.2230198383331299
18-06-1984,3.375,3.375,472000.0,3.484375,3.46875,1.245461106300354
19-06-1984,3.4375,3.5,385600.0,3.5,3.484375,1.2510707378387451
20-06-1984,3.375,3.453125,2826400.0,3.46875,3.46875,1.245461106300354
21-06-1984,3.421875,3.46875,983200.0,3.46875,3.453125,1.239850401878357
22-06-1984,3.390625,3.453125,839200.0,3.453125,3.453125,1.239850401878357
25-06-1984,3.453125,3.484375,1771200.0,3.515625,3.46875,1.245461106300354
26-06-1984,3.46875,3.5,2021600.0,3.546875,3.46875,1.245461106300354
27-06-1984,3.375,3.4375,542400.0,3.46875,3.4375,1.2342400550842285
28-06-1984,3.390625,3.4375,572000.0,3.4375,3.4375,1.2342400550842285
29-06-1984,3.4375,3.4375,1027200.0,3.484375,3.484375,1.2510707378387451
02-07-1984,3.453125,3.53125,511200.0,3.53125,3.484375,1.2510707378387451
03-07-1984,3.46875,3.5,676000.0,3.59375,3.5625,1.2791223526000977
05-07-1984,3.5,3.5625,293600.0,3.578125,3.546875,1.273511528968811
06-07-1984,3.484375,3.53125,331200.0,3.65625,3.546875,1.273511528968811
09-07-1984,3.578125,3.59375,264000.0,3.625,3.625,1.3015625476837158
10-07-1984,3.65625,3.65625,552800.0,3.78125,3.71875,1.3352237939834595
11-07-1984,3.65625,3.71875,184000.0,3.75,3.6875,1.32400381565094
12-07-1984,3.5625,3.625,382400.0,3.6875,3.625,1.3015625476837158
13-07-1984,3.546875,3.65625,687200.0,3.6875,3.609375,1.2959526777267456
16-07-1984,3.546875,3.609375,436000.0,3.65625,3.625,1.3015625476837158
17-07-1984,3.609375,3.625,928800.0,3.6875,3.65625,1.3127833604812622
18-07-1984,3.53125,3.65625,272800.0,3.65625,3.625,1.3015625476837158
19-07-1984,3.46875,3.625,314400.0,3.625,3.5,1.2566808462142944
20-07-1984,3.53125,3.53125,136000.0,3.625,3.59375,1.2903425693511963
23-07-1984,3.53125,3.59375,532000.0,3.59375,3.546875,1.273511528968811
24-07-1984,3.53125,3.546875,476800.0,3.59375,3.546875,1.273511528968811
25-07-1984,3.515625,3.546875,224800.0,3.578125,3.546875,1.273511528968811
26-07-1984,3.5,3.578125,936800.0,3.578125,3.53125,1.26790189743042
27-07-1984,3.46875,3.5,457600.0,3.625,3.53125,1.26790189743042
30-07-1984,3.46875,3.546875,628000.0,3.609375,3.5,1.2566808462142944
31-07-1984,3.40625,3.484375,531200.0,3.53125,3.453125,1.239850401878357
01-08-1984,3.484375,3.484375,1785600.0,3.734375,3.625,1.3015625476837158
02-08-1984,3.625,3.625,1441600.0,3.75,3.75,1.3464438915252686
03-08-1984,3.828125,3.875,1789600.0,3.9375,3.875,1.3913260698318481
06-08-1984,3.8125,3.859375,2960800.0,3.9375,3.9375,1.4303781986236572
07-08-1984,3.890625,3.90625,716000.0,4.046875,3.984375,1.447405219078064
08-08-1984,3.9375,3.984375,592000.0,4.0,3.9375,1.4303781986236572
09-08-1984,3.875,3.9375,1179200.0,4.125,4.109375,1.4928139448165894
10-08-1984,4.09375,4.09375,1677600.0,4.234375,4.1875,1.5211946964263916
13-08-1984,4.0625,4.15625,1063200.0,4.1875,4.078125,1.4814611673355103
14-08-1984,4.09375,4.15625,637600.0,4.15625,4.09375,1.4871381521224976
15-08-1984,3.96875,4.03125,536000.0,4.109375,4.078125,1.4814611673355103
16-08-1984,4.046875,4.046875,495200.0,4.15625,4.09375,1.4871381521224976
17-08-1984,4.09375,4.125,474400.0,4.15625,4.109375,1.4928139448165894
20-08-1984,4.09375,4.09375,893600.0,4.1875,4.1875,1.5211946964263916
21-08-1984,4.15625,4.21875,700000.0,4.28125,4.234375,1.5382229089736938
22-08-1984,4.125,4.234375,1062400.0,4.234375,4.21875,1.5325474739074707
23-08-1984,4.171875,4.1875,199200.0,4.21875,4.1875,1.5211946964263916
24-08-1984,4.1875,4.1875,376800.0,4.3125,4.296875,1.560927391052246
27-08-1984,4.21875,4.3125,188800.0,4.3125,4.28125,1.5552514791488647
28-08-1984,4.21875,4.25,974400.0,4.296875,4.234375,1.5382229089736938
29-08-1984,4.171875,4.25,725600.0,4.28125,4.1875,1.5211946964263916
30-08-1984,4.140625,4.15625,276000.0,4.203125,4.15625,1.5098425149917603
31-08-1984,4.09375,4.125,365600.0,4.1875,4.1875,1.5211946964263916
04-09-1984,4.140625,4.15625,382400.0,4.171875,4.171875,1.5155186653137207
05-09-1984,4.078125,4.140625,368000.0,4.171875,4.140625,1.504167079925537
06-09-1984,4.171875,4.171875,220000.0,4.203125,4.1875,1.5211946964263916
07-09-1984,4.15625,4.234375,332000.0,4.25,4.1875,1.5211946964263916
10-09-1984,4.140625,4.15625,212800.0,4.21875,4.1875,1.5211946964263916
11-09-1984,4.21875,4.21875,533600.0,4.28125,4.25,1.5438995361328125
12-09-1984,4.1875,4.21875,748800.0,4.25,4.21875,1.5325474739074707
13-09-1984,4.1875,4.1875,1043200.0,4.34375,4.34375,1.5779558420181274
14-09-1984,4.296875,4.359375,648800.0,4.375,4.34375,1.5779558420181274
17-09-1984,4.3125,4.3125,676800.0,4.40625,4.40625,1.600659728050232
18-09-1984,4.40625,4.421875,744800.0,4.484375,4.484375,1.6290408372879028
19-09-1984,4.421875,4.453125,767200.0,4.515625,4.4375,1.6120115518569946
20-09-1984,4.40625,4.40625,536800.0,4.484375,4.46875,1.6233642101287842
21-09-1984,4.4375,4.4375,721600.0,4.484375,4.4375,1.6120115518569946
24-09-1984,4.40625,4.421875,444000.0,4.484375,4.46875,1.6233642101287842
25-09-1984,4.375,4.453125,1692000.0,4.453125,4.421875,1.6063367128372192
26-09-1984,4.359375,4.40625,603200.0,4.46875,4.359375,1.5836321115493774
27-09-1984,4.28125,4.390625,757600.0,4.40625,4.375,1.589308500289917
28-09-1984,4.15625,4.265625,817600.0,4.265625,4.21875,1.5325474739074707
01-10-1984,4.171875,4.1875,296800.0,4.25,4.21875,1.5325474739074707
02-10-1984,4.171875,4.203125,294400.0,4.28125,4.171875,1.5155186653137207
03-10-1984,4.0,4.140625,1790400.0,4.1875,4.03125,1.4644323587417603
04-10-1984,4.03125,4.03125,644000.0,4.09375,4.09375,1.4871381521224976
05-10-1984,4.125,4.125,310400.0,4.21875,4.171875,1.5155186653137207
08-10-1984,4.078125,4.15625,121600.0,4.171875,4.109375,1.4928139448165894
09-10-1984,4.09375,4.109375,1056000.0,4.15625,4.140625,1.504167079925537
10-10-1984,4.03125,4.140625,262400.0,4.15625,4.15625,1.5098425149917603
11-10-1984,4.140625,4.140625,126400.0,4.21875,4.21875,1.5325474739074707
12-10-1984,4.1875,4.1875,442400.0,4.328125,4.296875,1.560927391052246
15-10-1984,4.28125,4.3125,1718400.0,4.390625,4.34375,1.5779558420181274
16-10-1984,4.1875,4.328125,244000.0,4.34375,4.21875,1.5325474739074707
17-10-1984,4.1875,4.21875,328800.0,4.28125,4.25,1.5438995361328125
18-10-1984,4.21875,4.21875,368000.0,4.34375,4.34375,1.5779558420181274
19-10-1984,4.34375,4.34375,1361600.0,4.5625,4.421875,1.6063367128372192
22-10-1984,4.375,4.421875,663200.0,4.421875,4.375,1.589308500289917
23-10-1984,4.3125,4.34375,997600.0,4.375,4.34375,1.5779558420181274
24-10-1984,4.328125,4.328125,234400.0,4.4375,4.390625,1.5949841737747192
25-10-1984,4.328125,4.375,1270400.0,4.390625,4.34375,1.5779558420181274
26-10-1984,4.234375,4.3125,825600.0,4.34375,4.28125,1.5552514791488647
29-10-1984,4.25,4.265625,343200.0,4.28125,4.25,1.5438995361328125
30-10-1984,4.21875,4.25,420000.0,4.359375,4.328125,1.5722805261611938
31-10-1984,4.28125,4.28125,791200.0,4.3125,4.296875,1.560927391052246
01-11-1984,4.09375,4.125,859200.0,4.15625,4.125,1.498490571975708
02-11-1984,4.0625,4.078125,1601600.0,4.171875,4.140625,1.5207568407058716
05-11-1984,4.109375,4.125,407200.0,4.203125,4.203125,1.543710708618164
06-11-1984,4.21875,4.21875,916000.0,4.296875,4.296875,1.5781441926956177
07-11-1984,4.234375,4.28125,539200.0,4.296875,4.28125,1.572405219078064
08-11-1984,4.25,4.28125,999200.0,4.296875,4.28125,1.572405219078064
09-11-1984,4.234375,4.296875,480000.0,4.3125,4.28125,1.572405219078064
12-11-1984,4.265625,4.265625,361600.0,4.3125,4.296875,1.5781441926956177
13-11-1984,4.234375,4.265625,615200.0,4.296875,4.28125,1.572405219078064
14-11-1984,4.25,4.265625,357600.0,4.328125,4.3125,1.5838826894760132
15-11-1984,4.28125,4.3125,764000.0,4.3125,4.3125,1.5838826894760132
16-11-1984,4.28125,4.3125,492000.0,4.359375,4.328125,1.5896209478378296
19-11-1984,4.28125,4.296875,768000.0,4.375,4.3125,1.5838826894760132
20-11-1984,4.21875,4.265625,313600.0,4.296875,4.25,1.5609276294708252
21-11-1984,4.21875,4.28125,612800.0,4.28125,4.25,1.5609276294708252
23-11-1984,4.21875,4.234375,168000.0,4.28125,4.25,1.5609276294708252
26-11-1984,4.203125,4.25,520800.0,4.25,4.234375,1.555188775062561
27-11-1984,4.171875,4.203125,790400.0,4.234375,4.203125,1.543710708618164
28-11-1984,4.125,4.1875,481600.0,4.1875,4.140625,1.5207568407058716
29-11-1984,4.03125,4.109375,733600.0,4.125,4.078125,1.4978010654449463
30-11-1984,4.078125,4.125,350400.0,4.1875,4.109375,1.5092793703079224
03-12-1984,4.0625,4.078125,244800.0,4.125,4.078125,1.4978010654449463
04-12-1984,4.078125,4.078125,598400.0,4.1875,4.15625,1.5264954566955566
05-12-1984,4.0625,4.125,287200.0,4.125,4.09375,1.5035409927368164
06-12-1984,4.078125,4.09375,384800.0,4.171875,4.140625,1.5207568407058716
07-12-1984,4.09375,4.09375,342400.0,4.140625,4.125,1.5150178670883179
10-12-1984,4.125,4.125,331200.0,4.171875,4.140625,1.5207568407058716
11-12-1984,4.125,4.125,416000.0,4.1875,4.140625,1.5207568407058716
12-12-1984,4.125,4.125,872800.0,4.15625,4.140625,1.5207568407058716
13-12-1984,4.09375,4.125,420000.0,4.15625,4.109375,1.5092793703079224
14-12-1984,4.0625,4.078125,412000.0,4.125,4.09375,1.5035409927368164
17-12-1984,4.0,4.125,1825600.0,4.125,4.0625,1.492063283920288
18-12-1984,4.09375,4.09375,884000.0,4.171875,4.171875,1.5322339534759521
19-12-1984,4.15625,4.15625,755200.0,4.21875,4.15625,1.5264954566955566
20-12-1984,4.125,4.203125,779200.0,4.21875,4.125,1.5150178670883179
21-12-1984,3.9375,4.09375,1142400.0,4.15625,4.046875,1.486323356628418
24-12-1984,4.046875,4.078125,260800.0,4.125,4.109375,1.5092793703079224
26-12-1984,4.03125,4.109375,103200.0,4.109375,4.046875,1.486323356628418
27-12-1984,4.046875,4.078125,1440800.0,4.09375,4.0625,1.492063283920288
28-12-1984,4.0,4.03125,319200.0,4.0625,4.046875,1.486323356628418
31-12-1984,4.046875,4.078125,479200.0,4.171875,4.109375,1.5092793703079224
02-01-1985,4.109375,4.109375,910400.0,4.203125,4.15625,1.5264954566955566
03-01-1985,4.125,4.15625,364800.0,4.171875,4.15625,1.5264954566955566
04-01-1985,4.125,4.140625,332800.0,4.171875,4.125,1.5150178670883179
07-01-1985,4.140625,4.171875,1047200.0,4.21875,4.171875,1.5322339534759521
08-01-1985,4.15625,4.171875,320800.0,4.203125,4.1875,1.5379722118377686
09-01-1985,4.1875,4.21875,337600.0,4.21875,4.21875,1.5494506359100342
10-01-1985,4.203125,4.21875,1797600.0,4.296875,4.296875,1.5781441926956177
11-01-1985,4.234375,4.296875,1031200.0,4.3125,4.28125,1.572405219078064
14-01-1985,4.25,4.25,2920800.0,4.328125,4.328125,1.5896209478378296
15-01-1985,4.296875,4.328125,5229600.0,4.4375,4.40625,1.6183141469955444
16-01-1985,4.40625,4.5,13840000.0,4.5625,4.515625,1.6584855318069458
17-01-1985,4.484375,4.515625,1127200.0,4.515625,4.5,1.6527471542358398
18-01-1985,4.515625,4.53125,2415200.0,4.578125,4.546875,1.6699633598327637
21-01-1985,4.53125,4.53125,1831200.0,4.71875,4.71875,1.7330881357192993
22-01-1985,4.71875,4.734375,2558400.0,4.859375,4.734375,1.7388269901275635
23-01-1985,4.71875,4.75,644800.0,4.796875,4.765625,1.7503043413162231
24-01-1985,4.71875,4.734375,940800.0,4.796875,4.734375,1.7388269901275635
25-01-1985,4.71875,4.71875,966400.0,4.921875,4.921875,1.8076919317245483
28-01-1985,4.859375,4.875,801600.0,5.0,5.0,1.836385726928711
29-01-1985,4.875,4.921875,579200.0,4.96875,4.96875,1.824907660484314
30-01-1985,4.890625,4.984375,1524000.0,4.984375,4.96875,1.824907660484314
31-01-1985,4.78125,4.875,620800.0,4.90625,4.84375,1.7789983749389648
01-02-1985,4.78125,4.8125,423200.0,4.84375,4.78125,1.7560445070266724
04-02-1985,4.765625,4.765625,1716000.0,4.828125,4.8125,1.7675210237503052
05-02-1985,4.75,4.8125,636800.0,4.828125,4.78125,1.7560445070266724
06-02-1985,4.65625,4.765625,1779200.0,4.8125,4.703125,1.7273502349853516
07-02-1985,4.6875,4.703125,568000.0,4.78125,4.78125,1.7560445070266724
08-02-1985,4.75,4.78125,959200.0,4.859375,4.859375,1.784737467765808
11-02-1985,4.78125,4.8125,571200.0,4.8125,4.796875,1.7800978422164917
12-02-1985,4.71875,4.765625,586400.0,4.796875,4.734375,1.7569044828414917
13-02-1985,4.6875,4.71875,432000.0,4.75,4.734375,1.7569044828414917
14-02-1985,4.65625,4.734375,1396800.0,4.734375,4.6875,1.7395098209381104
15-02-1985,4.625,4.65625,1879200.0,4.65625,4.625,1.7163166999816895
19-02-1985,4.609375,4.6875,924800.0,4.6875,4.609375,1.7105181217193604
20-02-1985,4.578125,4.609375,1586400.0,4.625,4.59375,1.704718828201294
21-02-1985,4.546875,4.59375,1268000.0,4.59375,4.578125,1.6989210844039917
22-02-1985,4.546875,4.5625,1045600.0,4.609375,4.59375,1.704718828201294
25-02-1985,4.609375,4.609375,356800.0,4.609375,4.609375,1.7105181217193604
26-02-1985,4.59375,4.609375,665600.0,4.65625,4.640625,1.722114086151123
27-02-1985,4.625,4.625,451200.0,4.6875,4.65625,1.7279129028320312
28-02-1985,4.671875,4.6875,763200.0,4.71875,4.71875,1.7511061429977417
01-03-1985,4.71875,4.75,774400.0,4.859375,4.828125,1.7916948795318604
04-03-1985,4.734375,4.796875,907200.0,4.8125,4.765625,1.768500804901123
05-03-1985,4.71875,4.796875,940000.0,4.84375,4.75,1.7627027034759521
06-03-1985,4.75,4.75,1347200.0,4.859375,4.8125,1.7858961820602417
07-03-1985,4.765625,4.78125,678400.0,4.890625,4.828125,1.7916948795318604
08-03-1985,4.8125,4.8125,493600.0,4.90625,4.90625,1.8206868171691895
11-03-1985,4.859375,4.875,1016000.0,4.953125,4.875,1.8090895414352417
12-03-1985,4.6875,4.84375,862400.0,4.875,4.75,1.7627027034759521
13-03-1985,4.6875,4.71875,280800.0,4.796875,4.703125,1.74530827999115
14-03-1985,4.65625,4.6875,569600.0,4.8125,4.796875,1.7800978422164917
15-03-1985,4.625,4.765625,582400.0,4.8125,4.625,1.7163166999816895
18-03-1985,4.625,4.625,464000.0,4.703125,4.671875,1.7337114810943604
19-03-1985,4.640625,4.640625,392800.0,4.796875,4.75,1.7627027034759521
20-03-1985,4.65625,4.71875,212800.0,4.71875,4.6875,1.7395098209381104
21-03-1985,4.625,4.65625,334400.0,4.703125,4.671875,1.7337114810943604
22-03-1985,4.65625,4.6875,413600.0,4.734375,4.703125,1.74530827999115
25-03-1985,4.65625,4.703125,211200.0,4.734375,4.703125,1.74530827999115
26-03-1985,4.6875,4.71875,472000.0,4.78125,4.71875,1.7511061429977417
27-03-1985,4.703125,4.734375,250400.0,4.75,4.734375,1.7569044828414917
28-03-1985,4.640625,4.734375,610400.0,4.734375,4.671875,1.7337114810943604
29-03-1985,4.625,4.703125,410400.0,4.703125,4.65625,1.7279129028320312
01-04-1985,4.65625,4.671875,460800.0,4.703125,4.6875,1.7395098209381104
02-04-1985,4.671875,4.703125,448000.0,4.71875,4.703125,1.74530827999115
03-04-1985,4.671875,4.671875,388000.0,4.75,4.75,1.7627027034759521
04-04-1985,4.703125,4.703125,434400.0,4.75,4.734375,1.7569044828414917
08-04-1985,4.703125,4.734375,388000.0,4.734375,4.734375,1.7569044828414917
09-04-1985,4.6875,4.6875,454400.0,4.71875,4.71875,1.7511061429977417
10-04-1985,4.65625,4.78125,894400.0,4.78125,4.6875,1.7395098209381104
11-04-1985,4.671875,4.703125,643200.0,4.71875,4.6875,1.7395098209381104
12-04-1985,4.625,4.65625,1068800.0,4.6875,4.65625,1.7279129028320312
15-04-1985,4.625,4.625,189600.0,4.6875,4.6875,1.7395098209381104
16-04-1985,4.578125,4.640625,768800.0,4.671875,4.625,1.7163166999816895
17-04-1985,4.421875,4.5625,2160800.0,4.578125,4.484375,1.6641310453414917
18-04-1985,4.390625,4.40625,640800.0,4.4375,4.421875,1.6409374475479126
19-04-1985,4.390625,4.4375,615200.0,4.453125,4.4375,1.6467348337173462
22-04-1985,4.34375,4.40625,780000.0,4.40625,4.40625,1.6351391077041626
23-04-1985,4.34375,4.34375,564000.0,4.453125,4.453125,1.6525346040725708
24-04-1985,4.375,4.390625,4750400.0,4.453125,4.390625,1.6293411254882812
25-04-1985,4.34375,4.4375,649600.0,4.4375,4.4375,1.6467348337173462
26-04-1985,4.390625,4.40625,842400.0,4.4375,4.421875,1.6409374475479126
29-04-1985,4.375,4.421875,504000.0,4.421875,4.390625,1.6293411254882812
30-04-1985,4.34375,4.359375,612800.0,4.375,4.359375,1.6177438497543335
01-05-1985,4.34375,4.359375,2526400.0,4.40625,4.34375,1.6119459867477417
02-05-1985,4.3125,4.328125,977600.0,4.359375,4.359375,1.6177438497543335
03-05-1985,4.34375,4.359375,497600.0,4.40625,4.390625,1.6293411254882812
06-05-1985,4.3125,4.359375,297600.0,4.375,4.3125,1.618783950805664
07-05-1985,4.3125,4.34375,423200.0,4.375,4.375,1.64224374294281
08-05-1985,4.328125,4.375,1213600.0,4.375,4.34375,1.6305146217346191
09-05-1985,4.359375,4.359375,549600.0,4.40625,4.40625,1.6539738178253174
10-05-1985,4.40625,4.421875,1000000.0,4.53125,4.515625,1.6950304508209229
13-05-1985,4.46875,4.546875,528000.0,4.546875,4.5,1.689165472984314
14-05-1985,4.53125,4.53125,852000.0,4.625,4.59375,1.7243555784225464
15-05-1985,4.59375,4.609375,1112000.0,4.6875,4.640625,1.7419511079788208
16-05-1985,4.65625,4.671875,509600.0,4.75,4.75,1.7830078601837158
17-05-1985,4.78125,4.78125,1585600.0,4.859375,4.84375,1.8181991577148438
20-05-1985,4.875,4.890625,1227200.0,4.96875,4.9375,1.8533892631530762
21-05-1985,4.90625,4.9375,665600.0,4.96875,4.953125,1.8592548370361328
22-05-1985,4.921875,4.9375,1565600.0,4.96875,4.9375,1.8533892631530762
23-05-1985,4.875,4.921875,925600.0,4.953125,4.953125,1.8592548370361328
24-05-1985,4.890625,4.96875,918400.0,4.984375,4.921875,1.8475241661071777
28-05-1985,4.828125,4.90625,714400.0,4.921875,4.859375,1.8240654468536377
29-05-1985,4.828125,4.84375,803200.0,4.90625,4.875,1.8299288749694824
30-05-1985,4.84375,4.890625,470400.0,4.90625,4.875,1.8299288749694824
31-05-1985,4.84375,4.875,618400.0,4.90625,4.890625,1.835794448852539
03-06-1985,4.796875,4.859375,446400.0,4.890625,4.8125,1.806467890739441
04-06-1985,4.78125,4.78125,4740800.0,4.96875,4.921875,1.8475241661071777
05-06-1985,4.9375,4.953125,2116000.0,5.109375,5.09375,1.9120415449142456
06-06-1985,5.03125,5.09375,1146400.0,5.109375,5.109375,1.9179073572158813
07-06-1985,5.09375,5.09375,784000.0,5.1875,5.15625,1.9355016946792603
10-06-1985,5.125,5.15625,580800.0,5.15625,5.125,1.9237717390060425
11-06-1985,5.09375,5.140625,719200.0,5.140625,5.109375,1.9179073572158813
12-06-1985,5.078125,5.109375,701600.0,5.125,5.09375,1.9120415449142456
13-06-1985,5.078125,5.125,1678400.0,5.15625,5.09375,1.9120415449142456
14-06-1985,5.125,5.140625,594400.0,5.234375,5.21875,1.9589624404907227
17-06-1985,5.1875,5.203125,363200.0,5.25,5.25,1.9706918001174927
18-06-1985,5.171875,5.21875,696800.0,5.28125,5.1875,1.9472317695617676
19-06-1985,5.15625,5.203125,1571200.0,5.28125,5.25,1.9706918001174927
20-06-1985,5.21875,5.21875,241600.0,5.28125,5.28125,1.982422113418579
21-06-1985,5.25,5.25,808000.0,5.296875,5.296875,1.9882880449295044
24-06-1985,5.21875,5.265625,1336800.0,5.28125,5.265625,1.9765589237213135
25-06-1985,5.1875,5.25,1568000.0,5.359375,5.203125,1.9530980587005615
26-06-1985,5.1875,5.21875,676000.0,5.28125,5.25,1.9706918001174927
27-06-1985,5.21875,5.25,648000.0,5.296875,5.21875,1.9589624404907227
28-06-1985,5.203125,5.25,646400.0,5.265625,5.234375,1.964827537536621
01-07-1985,5.203125,5.234375,485600.0,5.296875,5.28125,1.982422113418579
02-07-1985,5.25,5.265625,669600.0,5.3125,5.3125,1.9941537380218506
03-07-1985,5.28125,5.3125,1062400.0,5.4375,5.40625,2.029343843460083
05-07-1985,5.390625,5.40625,444000.0,5.421875,5.421875,2.0352094173431396
08-07-1985,5.390625,5.390625,688000.0,5.421875,5.421875,2.0352094173431396
09-07-1985,5.328125,5.421875,791200.0,5.421875,5.390625,2.0234792232513428
10-07-1985,5.34375,5.375,2248800.0,5.40625,5.375,2.0176148414611816
11-07-1985,5.328125,5.328125,1067200.0,5.390625,5.390625,2.0234792232513428
12-07-1985,5.390625,5.421875,568800.0,5.453125,5.453125,2.0469398498535156
15-07-1985,5.4375,5.46875,708800.0,5.5,5.453125,2.0469398498535156
16-07-1985,5.421875,5.453125,656800.0,5.53125,5.5,2.0645337104797363
17-07-1985,5.59375,5.625,2698400.0,5.671875,5.671875,2.129051446914673
18-07-1985,5.625,5.671875,1896000.0,5.796875,5.78125,2.1701085567474365
19-07-1985,5.734375,5.75,1309600.0,5.90625,5.875,2.2052996158599854
22-07-1985,5.71875,5.84375,429600.0,5.859375,5.765625,2.1642425060272217
23-07-1985,5.59375,5.796875,941600.0,5.8125,5.625,2.111457109451294
24-07-1985,5.5,5.65625,410400.0,5.65625,5.53125,2.0762648582458496
25-07-1985,5.5,5.53125,535200.0,5.5625,5.5625,2.087996244430542
26-07-1985,5.546875,5.546875,1002400.0,5.734375,5.71875,2.1466474533081055
29-07-1985,5.59375,5.734375,928000.0,5.734375,5.640625,2.1173226833343506
30-07-1985,5.59375,5.625,361600.0,5.65625,5.640625,2.1173226833343506
31-07-1985,5.625,5.640625,216800.0,5.6875,5.671875,2.129051446914673
01-08-1985,5.625,5.671875,372800.0,5.6875,5.65625,2.123185873031616
02-08-1985,5.640625,5.671875,945600.0,5.734375,5.6875,2.1349170207977295
05-08-1985,5.640625,5.6875,348800.0,5.6875,5.65625,2.123185873031616
06-08-1985,5.46875,5.5,2713600.0,5.65625,5.5,2.082948684692383
07-08-1985,5.40625,5.5,1204000.0,5.53125,5.5,2.082948684692383
08-08-1985,5.5,5.53125,1320000.0,5.6875,5.6875,2.1539578437805176
09-08-1985,5.609375,5.65625,725600.0,5.703125,5.640625,2.136204242706299
12-08-1985,5.609375,5.609375,644000.0,5.65625,5.625,2.130286455154419
13-08-1985,5.625,5.640625,587200.0,5.6875,5.640625,2.136204242706299
14-08-1985,5.625,5.625,302400.0,5.6875,5.65625,2.1421239376068115
15-08-1985,5.53125,5.671875,822400.0,5.671875,5.53125,2.0947835445404053
16-08-1985,5.375,5.5,678400.0,5.53125,5.421875,2.053361415863037
19-08-1985,5.421875,5.421875,441600.0,5.484375,5.453125,2.0651962757110596
20-08-1985,5.453125,5.484375,385600.0,5.578125,5.546875,2.1006999015808105
21-08-1985,5.453125,5.53125,1249600.0,5.625,5.5625,2.1066184043884277
22-08-1985,5.484375,5.59375,1018400.0,5.59375,5.5,2.082948684692383
23-08-1985,5.4375,5.46875,458400.0,5.5625,5.484375,2.0770304203033447
26-08-1985,5.484375,5.484375,340800.0,5.546875,5.5,2.082948684692383
27-08-1985,5.484375,5.484375,152800.0,5.5625,5.5625,2.1066184043884277
28-08-1985,5.46875,5.5625,448800.0,5.578125,5.5,2.082948684692383
29-08-1985,5.484375,5.5,355200.0,5.546875,5.53125,2.0947835445404053
30-08-1985,5.484375,5.53125,737600.0,5.546875,5.53125,2.0947835445404053
03-09-1985,5.515625,5.546875,384000.0,5.6875,5.6875,2.1539578437805176
04-09-1985,5.625,5.6875,371200.0,5.734375,5.671875,2.148041248321533
05-09-1985,5.5625,5.6875,484000.0,5.6875,5.578125,2.112534761428833
06-09-1985,5.484375,5.5625,406400.0,5.59375,5.546875,2.1006999015808105
09-09-1985,5.5,5.5625,142400.0,5.5625,5.5,2.082948684692383
10-09-1985,5.46875,5.46875,272800.0,5.515625,5.5,2.082948684692383
11-09-1985,5.375,5.5,1280000.0,5.5,5.390625,2.0415258407592773
12-09-1985,5.34375,5.375,597600.0,5.4375,5.375,2.0356085300445557
13-09-1985,5.375,5.375,556800.0,5.4375,5.421875,2.053361415863037
16-09-1985,5.40625,5.453125,253600.0,5.53125,5.515625,2.0888655185699463
17-09-1985,5.515625,5.515625,879200.0,5.625,5.609375,2.1243698596954346
18-09-1985,5.484375,5.578125,427200.0,5.640625,5.484375,2.0770304203033447
19-09-1985,5.453125,5.515625,568000.0,5.515625,5.484375,2.0770304203033447
20-09-1985,5.421875,5.453125,589600.0,5.53125,5.46875,2.0711121559143066
23-09-1985,5.53125,5.53125,484000.0,5.59375,5.59375,2.11845326423645
24-09-1985,5.578125,5.59375,599200.0,5.65625,5.609375,2.1243698596954346
25-09-1985,5.546875,5.546875,301600.0,5.609375,5.609375,2.1243698596954346
26-09-1985,5.53125,5.625,360000.0,5.625,5.59375,2.11845326423645
30-09-1985,5.578125,5.59375,349600.0,5.625,5.625,2.130286455154419
01-10-1985,5.59375,5.609375,324000.0,5.703125,5.703125,2.159874677658081
02-10-1985,5.59375,5.71875,1103200.0,5.796875,5.59375,2.11845326423645
03-10-1985,5.578125,5.578125,260800.0,5.6875,5.609375,2.1243698596954346
04-10-1985,5.546875,5.609375,794400.0,5.609375,5.578125,2.112534761428833
07-10-1985,5.390625,5.5625,848800.0,5.5625,5.40625,2.0474443435668945
08-10-1985,5.40625,5.4375,253600.0,5.484375,5.453125,2.0651962757110596
09-10-1985,5.40625,5.421875,2060000.0,5.46875,5.4375,2.059278964996338
10-10-1985,5.421875,5.421875,260000.0,5.453125,5.4375,2.059278964996338
11-10-1985,5.40625,5.40625,1391200.0,5.46875,5.46875,2.0711121559143066
14-10-1985,5.453125,5.46875,680000.0,5.53125,5.53125,2.0947835445404053
15-10-1985,5.53125,5.5625,476800.0,5.59375,5.59375,2.11845326423645
16-10-1985,5.578125,5.578125,1112000.0,5.671875,5.671875,2.148041248321533
17-10-1985,5.640625,5.640625,757600.0,5.703125,5.6875,2.1539578437805176
18-10-1985,5.5625,5.671875,757600.0,5.703125,5.578125,2.112534761428833
21-10-1985,5.5625,5.59375,1012800.0,5.734375,5.65625,2.1421239376068115
22-10-1985,5.65625,5.671875,692000.0,5.71875,5.703125,2.159874677658081
23-10-1985,5.59375,5.703125,376800.0,5.703125,5.671875,2.148041248321533
24-10-1985,5.59375,5.65625,386400.0,5.671875,5.625,2.130286455154419
25-10-1985,5.515625,5.59375,182400.0,5.609375,5.609375,2.1243698596954346
28-10-1985,5.546875,5.609375,180000.0,5.625,5.609375,2.1243698596954346
29-10-1985,5.609375,5.609375,212800.0,5.65625,5.65625,2.1421239376068115
30-10-1985,5.625,5.625,640000.0,5.671875,5.671875,2.148041248321533
31-10-1985,5.65625,5.65625,524000.0,5.6875,5.6875,2.1539578437805176
01-11-1985,5.65625,5.65625,965600.0,5.890625,5.890625,2.230884552001953
04-11-1985,5.859375,5.90625,1089600.0,6.0,5.90625,2.236802339553833
05-11-1985,5.8125,6.015625,884000.0,6.015625,6.015625,2.29964017868042
06-11-1985,6.015625,6.015625,1521600.0,6.15625,6.046875,2.311584949493408
07-11-1985,6.03125,6.046875,840000.0,6.15625,6.15625,2.3533973693847656
08-11-1985,6.046875,6.125,337600.0,6.125,6.09375,2.3295037746429443
11-11-1985,6.03125,6.09375,656800.0,6.15625,6.15625,2.3533973693847656
12-11-1985,6.125,6.125,1264800.0,6.25,6.234375,2.3832621574401855
13-11-1985,6.140625,6.25,449600.0,6.25,6.140625,2.3474233150482178
14-11-1985,6.078125,6.125,614400.0,6.234375,6.171875,2.3593690395355225
15-11-1985,6.15625,6.15625,1276800.0,6.3125,6.203125,2.37131667137146
18-11-1985,6.140625,6.21875,1349600.0,6.296875,6.296875,2.4071555137634277
19-11-1985,6.34375,6.375,854400.0,6.421875,6.421875,2.4549388885498047
20-11-1985,6.34375,6.375,290400.0,6.40625,6.375,2.4370198249816895
21-11-1985,6.34375,6.375,668800.0,6.40625,6.375,2.4370198249816895
22-11-1985,6.203125,6.34375,374400.0,6.375,6.21875,2.3772904872894287
25-11-1985,6.1875,6.3125,424800.0,6.3125,6.265625,2.3952083587646484
26-11-1985,6.0625,6.234375,1265600.0,6.25,6.15625,2.3533973693847656
27-11-1985,6.1875,6.1875,1169600.0,6.3125,6.28125,2.40118145942688
29-11-1985,6.203125,6.25,924800.0,6.3125,6.234375,2.3832621574401855
02-12-1985,6.125,6.203125,472800.0,6.21875,6.203125,2.37131667137146
03-12-1985,6.171875,6.21875,650400.0,6.25,6.1875,2.365342617034912
04-12-1985,6.03125,6.0625,2110400.0,6.1875,6.171875,2.3593690395355225
05-12-1985,5.9375,6.15625,1506400.0,6.1875,5.9375,2.2697741985321045
06-12-1985,5.5625,5.90625,1225600.0,5.90625,5.859375,2.239908456802368
09-12-1985,5.828125,5.828125,827200.0,6.078125,5.96875,2.2817203998565674
10-12-1985,5.9375,5.9375,409600.0,6.03125,5.953125,2.2757465839385986
11-12-1985,5.9375,5.9375,549600.0,6.0,5.984375,2.2876932621002197
12-12-1985,5.90625,5.984375,1932000.0,6.0625,5.984375,2.2876932621002197
13-12-1985,5.984375,5.984375,625600.0,6.234375,6.203125,2.37131667137146
16-12-1985,6.140625,6.1875,1236000.0,6.359375,6.34375,2.4250731468200684
17-12-1985,6.1875,6.359375,1179200.0,6.359375,6.359375,2.431046962738037
18-12-1985,6.28125,6.328125,987200.0,6.375,6.34375,2.4250731468200684
19-12-1985,6.28125,6.296875,683200.0,6.359375,6.296875,2.4071555137634277
20-12-1985,6.25,6.296875,795200.0,6.375,6.375,2.4370198249816895
23-12-1985,6.28125,6.3125,602400.0,6.375,6.359375,2.431046962738037
24-12-1985,6.09375,6.3125,727200.0,6.3125,6.140625,2.3474233150482178
26-12-1985,6.09375,6.125,173600.0,6.140625,6.109375,2.335477828979492
27-12-1985,6.078125,6.078125,525600.0,6.1875,6.1875,2.365342617034912
30-12-1985,6.15625,6.1875,418400.0,6.265625,6.265625,2.3952083587646484
31-12-1985,6.25,6.28125,786400.0,6.375,6.375,2.4370198249816895
02-01-1986,6.296875,6.375,540800.0,6.375,6.328125,2.4191014766693115
03-01-1986,6.25,6.3125,650400.0,6.34375,6.296875,2.4071555137634277
06-01-1986,6.140625,6.296875,427200.0,6.296875,6.1875,2.365342617034912
07-01-1986,6.03125,6.21875,592000.0,6.234375,6.125,2.3414506912231445
08-01-1986,5.6875,6.15625,1376800.0,6.171875,5.71875,2.1861495971679688
09-01-1986,5.625,5.625,1164800.0,5.828125,5.828125,2.227961778640747
10-01-1986,5.765625,5.8125,749600.0,5.84375,5.78125,2.2100422382354736
13-01-1986,5.765625,5.78125,688800.0,5.84375,5.78125,2.2100422382354736
14-01-1986,5.71875,5.78125,1518400.0,5.796875,5.765625,2.204068899154663
15-01-1986,5.71875,5.75,1378400.0,5.90625,5.90625,2.2578282356262207
16-01-1986,5.875,5.921875,352000.0,6.03125,5.984375,2.2876932621002197
17-01-1986,5.9375,5.953125,518400.0,6.0625,6.015625,2.29964017868042
20-01-1986,5.890625,5.984375,744800.0,5.984375,5.96875,2.2817203998565674
21-01-1986,5.875,5.953125,740000.0,6.0,5.921875,2.2638003826141357
22-01-1986,5.8125,5.96875,1319200.0,6.0,5.8125,2.2219884395599365
23-01-1986,5.765625,5.78125,598400.0,5.875,5.828125,2.227961778640747
24-01-1986,5.8125,5.8125,909600.0,5.953125,5.953125,2.2757465839385986
27-01-1986,5.890625,5.90625,435200.0,5.984375,5.96875,2.2817203998565674
28-01-1986,5.9375,6.0,480800.0,6.0,5.953125,2.2757465839385986
29-01-1986,5.953125,5.984375,848000.0,6.125,6.03125,2.3056130409240723
30-01-1986,6.0,6.015625,881600.0,6.109375,6.0625,2.3175575733184814
31-01-1986,6.078125,6.109375,1335200.0,6.171875,6.140625,2.3474233150482178
03-02-1986,6.109375,6.109375,628000.0,6.21875,6.203125,2.37131667137146
04-02-1986,6.21875,6.25,1524000.0,6.28125,6.234375,2.3832621574401855
05-02-1986,6.234375,6.25,1951200.0,6.328125,6.3125,2.4131276607513428
06-02-1986,6.328125,6.34375,1742400.0,6.453125,6.421875,2.4549388885498047
07-02-1986,6.359375,6.421875,972000.0,6.53125,6.53125,2.4967496395111084
10-02-1986,6.546875,6.703125,1145600.0,6.734375,6.703125,2.56245493888855
11-02-1986,6.640625,6.875,1729600.0,6.890625,6.875,2.64990234375
12-02-1986,6.75,6.84375,1461600.0,6.90625,6.75,2.601722002029419
13-02-1986,6.6875,6.71875,1157600.0,6.875,6.875,2.64990234375
14-02-1986,6.734375,6.90625,1000000.0,6.96875,6.96875,2.6860361099243164
18-02-1986,6.96875,7.0,1034400.0,7.15625,7.125,2.7462611198425293
19-02-1986,7.125,7.15625,1052000.0,7.34375,7.171875,2.764328718185425
20-02-1986,7.125,7.171875,2320800.0,7.234375,7.15625,2.758307456970215
21-02-1986,7.140625,7.15625,1183200.0,7.3125,7.265625,2.800464153289795
24-02-1986,7.15625,7.21875,668800.0,7.3125,7.296875,2.8125100135803223
25-02-1986,7.15625,7.3125,1738400.0,7.34375,7.21875,2.7823965549468994
26-02-1986,7.21875,7.25,732000.0,7.296875,7.28125,2.8064866065979004
27-02-1986,7.25,7.3125,463200.0,7.375,7.328125,2.8245537281036377
28-02-1986,7.46875,7.5,1215200.0,7.6875,7.6875,2.9630722999572754
03-03-1986,7.421875,7.6875,721600.0,7.6875,7.453125,2.872734308242798
04-03-1986,7.34375,7.453125,1326400.0,7.6875,7.53125,2.902848720550537
05-03-1986,7.46875,7.5625,562400.0,7.5625,7.5625,2.9148917198181152
06-03-1986,7.5625,7.59375,1779200.0,8.046875,7.984375,3.0774991512298584
07-03-1986,7.84375,7.984375,1203200.0,7.984375,7.90625,3.0473880767822266
10-03-1986,7.71875,7.90625,428000.0,7.96875,7.71875,2.975118398666382
11-03-1986,7.703125,7.703125,742400.0,7.921875,7.890625,3.041365623474121
12-03-1986,7.875,7.875,964800.0,8.15625,8.03125,3.0955660343170166
13-03-1986,7.921875,8.0625,636000.0,8.125,8.09375,3.1196584701538086
14-03-1986,7.53125,8.0625,1812800.0,8.125,8.0625,3.1076104640960693
17-03-1986,7.78125,7.96875,766400.0,8.0625,7.984375,3.0774991512298584
18-03-1986,7.8125,7.96875,484800.0,7.984375,7.953125,3.0654547214508057
19-03-1986,7.8125,7.921875,692000.0,7.96875,7.90625,3.0473880767822266
20-03-1986,7.875,7.90625,1108000.0,8.0625,8.0625,3.1076104640960693
21-03-1986,8.0625,8.125,1337600.0,8.21875,8.15625,3.143747329711914
24-03-1986,8.125,8.21875,1558400.0,8.265625,8.203125,3.1618146896362305
25-03-1986,7.9375,8.1875,685600.0,8.1875,8.109375,3.125680446624756
26-03-1986,8.015625,8.109375,904000.0,8.109375,8.046875,3.101588726043701
27-03-1986,8.0,8.09375,678400.0,8.109375,8.015625,3.0895440578460693
31-03-1986,8.03125,8.078125,582400.0,8.109375,8.078125,3.113635301589966
01-04-1986,8.015625,8.109375,619200.0,8.109375,8.015625,3.0895440578460693
02-04-1986,7.96875,8.03125,1211200.0,8.046875,8.046875,3.101588726043701
03-04-1986,7.9375,8.046875,392800.0,8.078125,7.96875,3.0714783668518066
04-04-1986,7.59375,7.9375,819200.0,8.09375,7.59375,2.9269368648529053
07-04-1986,7.546875,7.59375,560800.0,7.65625,7.65625,2.9510271549224854
08-04-1986,7.640625,7.671875,503200.0,7.875,7.75,2.9871597290039062
09-04-1986,7.609375,7.8125,917600.0,7.890625,7.625,2.938981533050537
10-04-1986,7.375,7.65625,1039200.0,7.65625,7.59375,2.9269368648529053
11-04-1986,7.546875,7.578125,458400.0,7.65625,7.625,2.938981533050537
14-04-1986,7.53125,7.65625,730400.0,7.671875,7.625,2.938981533050537
15-04-1986,7.625,7.65625,269600.0,7.734375,7.640625,2.9450042247772217
16-04-1986,7.71875,7.71875,1074400.0,8.28125,8.25,3.1798810958862305
17-04-1986,7.9375,8.1875,801600.0,8.234375,8.0,3.0835213661193848
18-04-1986,7.640625,8.03125,1028000.0,8.046875,8.03125,3.0955660343170166
21-04-1986,8.0,8.09375,858400.0,8.109375,8.078125,3.113635301589966
22-04-1986,8.125,8.21875,1219200.0,8.28125,8.25,3.1798810958862305
23-04-1986,8.1875,8.25,945600.0,8.28125,8.25,3.1798810958862305
24-04-1986,8.1875,8.1875,652800.0,8.265625,8.203125,3.1618146896362305
25-04-1986,8.15625,8.203125,555200.0,8.234375,8.234375,3.1738593578338623
28-04-1986,8.15625,8.234375,561600.0,8.265625,8.234375,3.1738593578338623
29-04-1986,8.015625,8.203125,452000.0,8.203125,8.09375,3.1196584701538086
30-04-1986,8.09375,8.171875,1053600.0,8.28125,8.125,3.1317009925842285
01-05-1986,8.03125,8.09375,796000.0,8.25,8.234375,3.1738593578338623
02-05-1986,8.125,8.203125,712800.0,8.265625,8.203125,3.1618146896362305
05-05-1986,8.125,8.171875,431200.0,8.25,8.21875,3.1678364276885986
06-05-1986,8.09375,8.09375,180800.0,8.1875,8.09375,3.142601490020752
07-05-1986,8.09375,8.140625,590400.0,8.25,8.234375,3.197200059890747
08-05-1986,8.03125,8.28125,355200.0,8.28125,8.046875,3.124397039413452
09-05-1986,7.921875,8.015625,398400.0,8.015625,7.921875,3.075864553451538
12-05-1986,7.796875,7.9375,1021600.0,7.953125,7.796875,3.027329921722412
13-05-1986,7.65625,7.796875,651200.0,7.796875,7.703125,2.9909298419952393
14-05-1986,7.625,7.71875,809600.0,7.734375,7.625,2.96059513092041
15-05-1986,7.4375,7.640625,608000.0,7.640625,7.46875,2.8999264240264893
16-05-1986,7.3125,7.4375,1061600.0,7.5,7.5,2.912059783935547
19-05-1986,7.515625,7.53125,737600.0,7.625,7.609375,2.9545297622680664
20-05-1986,7.5625,7.609375,799200.0,7.75,7.734375,3.003063917160034
21-05-1986,7.640625,7.75,1017600.0,7.796875,7.75,3.0091278553009033
22-05-1986,7.734375,7.75,465600.0,7.90625,7.90625,3.069798231124878
23-05-1986,7.890625,7.921875,533600.0,8.03125,8.015625,3.1122634410858154
27-05-1986,7.953125,7.984375,221600.0,8.015625,7.984375,3.100132703781128
28-05-1986,7.875,7.984375,617600.0,8.0,7.953125,3.0879976749420166
29-05-1986,7.8125,7.921875,1089600.0,7.9375,7.9375,3.081929922103882
30-05-1986,7.828125,7.875,1028000.0,7.90625,7.890625,3.0637309551239014
02-06-1986,7.875,7.90625,1261600.0,7.953125,7.953125,3.0879976749420166
03-06-1986,7.90625,7.921875,451200.0,7.953125,7.953125,3.0879976749420166
04-06-1986,7.96875,7.984375,777600.0,8.109375,8.09375,3.142601490020752
05-06-1986,8.015625,8.09375,804800.0,8.109375,8.109375,3.148667097091675
06-06-1986,7.890625,8.078125,664800.0,8.09375,7.921875,3.075864553451538
09-06-1986,7.578125,7.890625,507200.0,7.890625,7.625,2.96059513092041
10-06-1986,7.59375,7.609375,776800.0,7.71875,7.65625,2.972729206085205
11-06-1986,7.625,7.671875,693600.0,7.734375,7.71875,2.996997594833374
12-06-1986,7.640625,7.6875,357600.0,7.859375,7.859375,3.051597833633423
13-06-1986,7.84375,7.84375,600000.0,8.03125,8.03125,3.1183316707611084
16-06-1986,7.9375,8.0,724000.0,8.0625,8.0625,3.130464792251587
17-06-1986,7.859375,8.0625,438400.0,8.0625,7.96875,3.0940654277801514
18-06-1986,7.828125,7.96875,331200.0,7.96875,7.921875,3.075864553451538
19-06-1986,7.6875,7.921875,492000.0,7.9375,7.78125,3.0212621688842773
20-06-1986,7.765625,7.78125,617600.0,7.875,7.84375,3.0455305576324463
23-06-1986,7.78125,7.875,881600.0,7.9375,7.90625,3.069798231124878
24-06-1986,7.890625,7.9375,989600.0,8.109375,8.0625,3.130464792251587
25-06-1986,8.078125,8.109375,1040000.0,8.171875,8.171875,3.172931432723999
26-06-1986,8.21875,8.34375,1207200.0,8.6875,8.6875,3.3731369972229004
27-06-1986,8.53125,8.65625,572000.0,8.65625,8.59375,3.3367362022399902
30-06-1986,8.5,8.5625,396000.0,8.640625,8.515625,3.3064024448394775
01-07-1986,8.46875,8.5,1366400.0,8.546875,8.53125,3.3124706745147705
02-07-1986,8.4375,8.53125,1432800.0,8.53125,8.46875,3.2882018089294434
03-07-1986,8.3125,8.484375,1009600.0,8.484375,8.421875,3.2700016498565674
07-07-1986,8.15625,8.453125,603200.0,8.453125,8.15625,3.1668665409088135
08-07-1986,7.765625,8.0,1141600.0,8.0,7.9375,3.081929922103882
09-07-1986,7.828125,7.9375,952800.0,7.96875,7.921875,3.075864553451538
10-07-1986,7.703125,7.921875,696000.0,7.921875,7.84375,3.0455305576324463
11-07-1986,7.78125,7.875,1339200.0,7.875,7.875,3.0576648712158203
14-07-1986,7.71875,7.84375,626400.0,7.84375,7.765625,3.0151965618133545
15-07-1986,7.5,7.71875,1178400.0,7.75,7.53125,2.9241960048675537
16-07-1986,7.515625,7.625,808800.0,7.671875,7.515625,2.918128490447998
17-07-1986,7.5,7.5,1128000.0,7.671875,7.640625,2.9666624069213867
18-07-1986,7.65625,7.75,808800.0,7.90625,7.78125,3.0212621688842773
21-07-1986,7.65625,7.75,498400.0,7.75,7.71875,2.996997594833374
22-07-1986,7.6875,7.6875,740000.0,7.875,7.875,3.0576648712158203
23-07-1986,7.8125,7.859375,1444000.0,7.984375,7.96875,3.0940654277801514
24-07-1986,7.9375,7.96875,552000.0,8.0625,8.0625,3.130464792251587
25-07-1986,7.96875,8.078125,448000.0,8.09375,8.09375,3.142601490020752
28-07-1986,7.8125,8.078125,580000.0,8.09375,7.8125,3.033396005630493
29-07-1986,7.765625,7.828125,768800.0,7.828125,7.78125,3.0212621688842773
30-07-1986,7.65625,7.78125,514400.0,7.796875,7.703125,2.9909298419952393
31-07-1986,7.65625,7.734375,704800.0,7.734375,7.703125,2.9909298419952393
01-08-1986,7.59375,7.6875,1102400.0,7.6875,7.59375,2.9484620094299316
04-08-1986,7.5,7.5625,620800.0,7.859375,7.859375,3.051597833633423
05-08-1986,7.71875,7.71875,760800.0,7.875,7.71875,3.020052194595337
06-08-1986,7.53125,7.625,532800.0,7.640625,7.5625,2.9589173793792725
07-08-1986,7.484375,7.59375,768800.0,7.625,7.5,2.934462547302246
08-08-1986,7.40625,7.546875,616800.0,7.546875,7.53125,2.946690320968628
11-08-1986,7.53125,7.5625,1471200.0,7.859375,7.859375,3.0750744342803955
12-08-1986,7.78125,7.828125,952000.0,7.984375,7.921875,3.099526882171631
13-08-1986,7.921875,7.921875,2211200.0,8.25,8.1875,3.2034552097320557
14-08-1986,8.203125,8.234375,1181600.0,8.28125,8.234375,3.2217960357666016
15-08-1986,8.15625,8.3125,1148000.0,8.3125,8.265625,3.234022378921509
18-08-1986,8.125,8.25,1219200.0,8.25,8.21875,3.2156825065612793
19-08-1986,8.171875,8.1875,1656000.0,8.203125,8.171875,3.197343349456787
20-08-1986,8.1875,8.203125,1321600.0,8.359375,8.359375,3.270704746246338
21-08-1986,8.34375,8.375,1935200.0,8.5,8.4375,3.3012707233428955
22-08-1986,8.34375,8.46875,779200.0,8.46875,8.375,3.2768166065216064
25-08-1986,8.28125,8.34375,586400.0,8.359375,8.296875,3.2462499141693115
26-08-1986,8.296875,8.296875,1156800.0,8.5,8.46875,3.3134982585906982
27-08-1986,8.4375,8.453125,981600.0,8.53125,8.53125,3.33795166015625
28-08-1986,8.5,8.53125,1001600.0,8.671875,8.640625,3.3807449340820312
29-08-1986,8.59375,8.59375,3828000.0,8.796875,8.71875,3.4113125801086426
02-09-1986,8.453125,8.71875,1000000.0,8.71875,8.46875,3.3134982585906982
03-09-1986,8.375,8.46875,1630400.0,8.625,8.625,3.3746328353881836
04-09-1986,8.640625,8.65625,2874400.0,9.0,8.890625,3.4785640239715576
05-09-1986,8.625,8.875,1639200.0,8.921875,8.671875,3.3929717540740967
08-09-1986,8.515625,8.59375,1348000.0,8.78125,8.75,3.423541307449341
09-09-1986,8.625,8.78125,1900800.0,8.859375,8.65625,3.386859893798828
10-09-1986,8.5625,8.65625,1460000.0,8.8125,8.8125,3.447995185852051
11-09-1986,8.4375,8.8125,2055200.0,8.8125,8.46875,3.3134982585906982
12-09-1986,8.1875,8.484375,2328800.0,8.5,8.34375,3.264591693878174
15-09-1986,8.390625,8.46875,1860800.0,8.484375,8.4375,3.3012707233428955
16-09-1986,8.375,8.4375,1300800.0,8.484375,8.453125,3.307385206222534
17-09-1986,8.34375,8.453125,1265600.0,8.484375,8.34375,3.264591693878174
18-09-1986,8.3125,8.34375,861600.0,8.40625,8.359375,3.270704746246338
19-09-1986,8.28125,8.359375,1069600.0,8.421875,8.421875,3.295159101486206
22-09-1986,8.34375,8.390625,415200.0,8.4375,8.421875,3.295159101486206
23-09-1986,8.421875,8.4375,1432800.0,8.546875,8.546875,3.3440651893615723
24-09-1986,8.390625,8.5,820800.0,8.5625,8.5625,3.350179433822632
25-09-1986,8.3125,8.5625,1181600.0,8.5625,8.375,3.2768166065216064
26-09-1986,8.25,8.34375,456000.0,8.359375,8.3125,3.2523648738861084
29-09-1986,7.9375,8.28125,1515200.0,8.28125,8.0,3.130093574523926
30-09-1986,7.96875,7.96875,930400.0,8.0625,8.015625,3.136206865310669
01-10-1986,8.015625,8.046875,1239200.0,8.1875,8.125,3.179002523422241
02-10-1986,8.109375,8.171875,648800.0,8.203125,8.109375,3.172889232635498
03-10-1986,8.015625,8.078125,416000.0,8.1875,8.078125,3.1606626510620117
06-10-1986,8.03125,8.046875,403200.0,8.15625,8.0625,3.154548168182373
07-10-1986,8.046875,8.078125,541600.0,8.140625,8.078125,3.1606626510620117
08-10-1986,8.078125,8.109375,1105600.0,8.21875,8.1875,3.2034552097320557
09-10-1986,8.21875,8.21875,1460800.0,8.28125,8.21875,3.2156825065612793
10-10-1986,8.140625,8.203125,465600.0,8.203125,8.15625,3.1912291049957275
13-10-1986,8.0625,8.140625,108000.0,8.171875,8.09375,3.1667771339416504
14-10-1986,8.125,8.125,656000.0,8.25,8.21875,3.2156825065612793
15-10-1986,8.203125,8.46875,475200.0,8.484375,8.46875,3.3134982585906982
16-10-1986,8.46875,8.5,1509600.0,8.59375,8.5625,3.350179433822632
17-10-1986,8.5625,8.59375,647200.0,8.609375,8.609375,3.3685176372528076
20-10-1986,8.5,8.578125,1486400.0,8.578125,8.5,3.325725793838501
21-10-1986,8.375,8.5,1067200.0,8.5,8.453125,3.307385206222534
22-10-1986,8.453125,8.484375,874400.0,8.578125,8.5625,3.350179433822632
23-10-1986,8.5625,8.59375,798400.0,8.671875,8.625,3.3746328353881836
24-10-1986,8.578125,8.65625,660000.0,8.6875,8.578125,3.3562915325164795
27-10-1986,8.515625,8.59375,717600.0,8.609375,8.5625,3.350179433822632
28-10-1986,8.5,8.59375,1252000.0,8.65625,8.609375,3.3685176372528076
29-10-1986,8.625,8.625,1340800.0,8.734375,8.734375,3.417428493499756
30-10-1986,8.65625,8.75,2224000.0,8.796875,8.703125,3.4051992893218994
31-10-1986,8.546875,8.734375,956000.0,8.734375,8.640625,3.3807449340820312
03-11-1986,8.625,8.65625,1692800.0,8.75,8.75,3.423541307449341
04-11-1986,8.640625,8.671875,1818400.0,8.703125,8.671875,3.4163999557495117
05-11-1986,8.65625,8.671875,1663200.0,8.84375,8.796875,3.465646505355835
06-11-1986,8.71875,8.765625,863200.0,8.84375,8.8125,3.4718000888824463
07-11-1986,8.734375,8.78125,1085600.0,8.890625,8.84375,3.4841129779815674
10-11-1986,8.6875,8.8125,815200.0,8.8125,8.734375,3.4410228729248047
11-11-1986,8.65625,8.703125,1544000.0,8.796875,8.78125,3.4594902992248535
12-11-1986,8.625,8.78125,776000.0,8.796875,8.71875,3.4348666667938232
13-11-1986,8.6875,8.734375,1657600.0,8.765625,8.6875,3.4225568771362305
14-11-1986,8.71875,8.734375,1803200.0,8.9375,8.890625,3.502579927444458
17-11-1986,8.75,8.828125,1086400.0,8.859375,8.75,3.4471795558929443
18-11-1986,8.578125,8.78125,1169600.0,8.796875,8.578125,3.3794639110565186
19-11-1986,8.578125,8.59375,869600.0,8.75,8.75,3.4471795558929443
20-11-1986,8.65625,8.78125,1061600.0,8.796875,8.734375,3.4410228729248047
21-11-1986,8.703125,8.734375,2249600.0,8.828125,8.78125,3.4594902992248535
24-11-1986,8.75,8.78125,1480000.0,8.90625,8.859375,3.4902687072753906
25-11-1986,8.875,8.875,1718400.0,9.125,9.0625,3.57029128074646
26-11-1986,9.046875,9.0625,897600.0,9.25,9.203125,3.6256916522979736
28-11-1986,9.171875,9.203125,1002400.0,9.28125,9.28125,3.6564722061157227
01-12-1986,9.046875,9.28125,995200.0,9.28125,9.234375,3.638005256652832
02-12-1986,9.234375,9.3125,1941600.0,9.453125,9.40625,3.705713987350464
03-12-1986,9.40625,9.40625,2039200.0,9.625,9.5625,3.767275810241699
04-12-1986,9.46875,9.59375,2061600.0,9.703125,9.46875,3.7303378582000732
05-12-1986,9.21875,9.40625,1144800.0,9.578125,9.359375,3.687251091003418
08-12-1986,9.21875,9.34375,944800.0,9.4375,9.359375,3.687251091003418
09-12-1986,9.21875,9.4375,876000.0,9.53125,9.21875,3.631847381591797
10-12-1986,9.21875,9.21875,1076000.0,9.375,9.34375,3.6810946464538574
11-12-1986,9.21875,9.34375,1772800.0,9.5,9.25,3.644160032272339
12-12-1986,9.109375,9.25,619200.0,9.28125,9.1875,3.619536876678467
15-12-1986,9.0,9.15625,850400.0,9.15625,9.078125,3.5764472484588623
16-12-1986,9.0625,9.1875,1204800.0,9.21875,9.21875,3.631847381591797
17-12-1986,9.1875,9.25,716800.0,9.28125,9.28125,3.6564722061157227
18-12-1986,9.09375,9.25,1108000.0,9.40625,9.15625,3.607227325439453
19-12-1986,9.125,9.1875,1775200.0,9.375,9.375,3.6934049129486084
22-12-1986,9.09375,9.25,1244800.0,9.28125,9.21875,3.631847381591797
23-12-1986,9.125,9.21875,1052800.0,9.21875,9.203125,3.6256916522979736
24-12-1986,9.15625,9.203125,1071200.0,9.203125,9.1875,3.619536876678467
26-12-1986,9.171875,9.203125,221600.0,9.21875,9.171875,3.613382577896118
29-12-1986,9.125,9.171875,745600.0,9.21875,9.15625,3.607227325439453
30-12-1986,9.03125,9.140625,908000.0,9.15625,9.03125,3.557981014251709
31-12-1986,9.03125,9.046875,940800.0,9.15625,9.109375,3.5887584686279297
02-01-1987,9.046875,9.078125,824000.0,9.3125,9.3125,3.668781042098999
