Date,Low,Open,Volume,High,Close,Adjusted Close
04-10-1989,2.4375,2.46875,20636000,2.546875,2.5,1.9570705890655518
05-10-1989,2.5,2.515625,6453600,2.625,2.578125,2.018228054046631
06-10-1989,2.546875,2.59375,2755200,2.625,2.546875,1.9937660694122314
09-10-1989,2.5,2.546875,1084000,2.546875,2.546875,1.9937660694122314
10-10-1989,2.5,2.5625,1493600,2.5625,2.53125,1.9815338850021362
11-10-1989,2.46875,2.5,1260000,2.515625,2.515625,1.9693026542663574
12-10-1989,2.515625,2.515625,602400,2.546875,2.53125,1.9815338850021362
13-10-1989,2.46875,2.53125,3970400,2.53125,2.484375,1.9448387622833252
16-10-1989,2.375,2.375,3924800,2.46875,2.46875,1.9326077699661255
17-10-1989,2.4375,2.4375,1843200,2.5,2.5,1.9570705890655518
18-10-1989,2.484375,2.5,1128000,2.5625,2.546875,1.9937660694122314
19-10-1989,2.53125,2.53125,1040000,2.546875,2.546875,1.9937660694122314
20-10-1989,2.515625,2.53125,237600,2.53125,2.53125,1.9815338850021362
23-10-1989,2.546875,2.546875,87200,2.5625,2.546875,1.9937660694122314
24-10-1989,2.53125,2.546875,689600,2.5625,2.5625,2.0059974193573
25-10-1989,2.515625,2.546875,608000,2.578125,2.546875,1.9937660694122314
26-10-1989,2.546875,2.546875,228800,2.5625,2.546875,1.9937660694122314
27-10-1989,2.5,2.546875,456000,2.546875,2.515625,1.9693026542663574
30-10-1989,2.5,2.515625,250400,2.515625,2.5,1.9570705890655518
31-10-1989,2.5,2.5,424800,2.515625,2.5,1.9570705890655518
01-11-1989,2.515625,2.515625,715200,2.5625,2.5625,2.0059974193573
02-11-1989,2.59375,2.59375,130400,2.640625,2.640625,2.0671563148498535
03-11-1989,2.625,2.625,1118400,2.75,2.734375,2.1405460834503174
06-11-1989,2.578125,2.71875,264800,2.71875,2.578125,2.018228054046631
07-11-1989,2.5,2.546875,727200,2.6875,2.6875,2.103851318359375
08-11-1989,2.671875,2.6875,236800,2.71875,2.71875,2.128314971923828
09-11-1989,2.6875,2.71875,60800,2.71875,2.6875,2.103851318359375
10-11-1989,2.546875,2.6875,210400,2.6875,2.5625,2.0059974193573
13-11-1989,2.515625,2.5625,92800,2.5625,2.546875,1.9937660694122314
14-11-1989,2.484375,2.578125,428000,2.578125,2.53125,1.9815338850021362
15-11-1989,2.53125,2.546875,176000,2.578125,2.5625,2.0059974193573
16-11-1989,2.546875,2.546875,301600,2.59375,2.59375,2.0304601192474365
17-11-1989,2.59375,2.59375,249600,2.640625,2.640625,2.0671563148498535
20-11-1989,2.609375,2.65625,43200,2.65625,2.609375,2.042693853378296
21-11-1989,2.59375,2.59375,108800,2.671875,2.671875,2.091618061065674
22-11-1989,2.6875,2.6875,255200,2.75,2.75,2.152778387069702
24-11-1989,2.78125,2.78125,572000,2.953125,2.921875,2.287328004837036
27-11-1989,2.859375,2.90625,253600,2.9375,2.875,2.25063157081604
28-11-1989,2.828125,2.875,560000,2.875,2.828125,2.2139365673065186
29-11-1989,2.78125,2.8125,60800,2.8125,2.796875,2.1894731521606445
30-11-1989,2.8125,2.8125,712800,2.90625,2.890625,2.26286244392395
01-12-1989,2.890625,2.890625,356800,2.953125,2.90625,2.2750954627990723
04-12-1989,2.875,2.9375,172000,2.984375,2.984375,2.3362526893615723
05-12-1989,2.90625,2.953125,93600,2.984375,2.90625,2.2750954627990723
06-12-1989,2.90625,2.90625,668800,3.0,2.984375,2.3362526893615723
07-12-1989,2.921875,2.984375,215200,2.984375,2.953125,2.3117897510528564
08-12-1989,2.921875,2.921875,122400,2.953125,2.953125,2.3117897510528564
11-12-1989,2.9375,2.96875,306400,3.03125,3.0,2.3484840393066406
12-12-1989,2.984375,3.015625,1119200,3.03125,3.015625,2.360715627670288
13-12-1989,2.984375,3.0,400000,3.15625,3.15625,2.470801591873169
14-12-1989,3.109375,3.125,391200,3.140625,3.125,2.4463393688201904
15-12-1989,3.09375,3.140625,155200,3.140625,3.109375,2.4341073036193848
18-12-1989,3.03125,3.078125,224000,3.125,3.03125,2.3729491233825684
19-12-1989,3.03125,3.03125,215200,3.0625,3.0625,2.397412061691284
20-12-1989,3.046875,3.0625,166400,3.109375,3.078125,2.4096431732177734
21-12-1989,3.0625,3.109375,174400,3.125,3.109375,2.4341073036193848
22-12-1989,3.109375,3.125,173600,3.125,3.125,2.4463393688201904
26-12-1989,3.078125,3.109375,97600,3.109375,3.078125,2.4096431732177734
27-12-1989,3.03125,3.0625,144000,3.0625,3.03125,2.3729491233825684
28-12-1989,3.03125,3.046875,11200,3.046875,3.03125,2.3729491233825684
29-12-1989,3.015625,3.03125,219200,3.15625,3.15625,2.470801591873169
02-01-1990,3.03125,3.125,194400,3.125,3.046875,2.3851802349090576
03-01-1990,3.03125,3.0625,361600,3.0625,3.03125,2.3729491233825684
04-01-1990,2.953125,3.03125,166400,3.0625,2.953125,2.3117897510528564
05-01-1990,2.859375,2.9375,100800,2.9375,2.90625,2.2750954627990723
08-01-1990,2.84375,2.875,880800,2.890625,2.859375,2.2383995056152344
09-01-1990,2.8125,2.828125,282400,2.84375,2.8125,2.2017056941986084
10-01-1990,2.6875,2.765625,784000,2.765625,2.703125,2.120795488357544
11-01-1990,2.703125,2.71875,347200,2.765625,2.75,2.1575729846954346
12-01-1990,2.6875,2.71875,159200,2.734375,2.71875,2.1330552101135254
15-01-1990,2.71875,2.734375,25600,2.734375,2.71875,2.1330552101135254
16-01-1990,2.625,2.6875,172800,2.703125,2.703125,2.120795488357544
17-01-1990,2.71875,2.71875,216000,2.8125,2.71875,2.1330552101135254
18-01-1990,2.6875,2.6875,157600,2.71875,2.703125,2.120795488357544
19-01-1990,2.734375,2.734375,8800,2.75,2.75,2.1575729846954346
22-01-1990,2.71875,2.734375,56800,2.75,2.734375,2.145313262939453
23-01-1990,2.734375,2.765625,101600,2.765625,2.75,2.1575729846954346
24-01-1990,2.6875,2.734375,26400,2.734375,2.6875,2.108537197113037
25-01-1990,2.671875,2.6875,249600,2.71875,2.71875,2.1330552101135254
26-01-1990,2.671875,2.703125,45600,2.71875,2.671875,2.0962769985198975
29-01-1990,2.625,2.6875,444000,2.6875,2.640625,2.0717601776123047
30-01-1990,2.578125,2.625,548000,2.65625,2.65625,2.084019184112549
31-01-1990,2.6875,2.6875,757600,2.859375,2.859375,2.2433855533599854
01-02-1990,2.84375,2.875,149600,2.875,2.859375,2.2433855533599854
02-02-1990,2.875,2.875,720000,2.90625,2.875,2.2556443214416504
05-02-1990,2.875,2.90625,163200,2.90625,2.875,2.2556443214416504
06-02-1990,2.84375,2.875,99200,2.90625,2.890625,2.267901659011841
07-02-1990,2.90625,2.90625,32800,2.9375,2.9375,2.304680824279785
08-02-1990,2.96875,2.96875,346400,3.125,3.046875,2.390493154525757
09-02-1990,2.96875,3.078125,179200,3.125,3.0,2.353715181350708
12-02-1990,2.90625,3.0,28000,3.0,2.90625,2.280163526535034
13-02-1990,2.9375,2.9375,26400,2.953125,2.953125,2.316938877105713
14-02-1990,2.9375,2.953125,32800,2.96875,2.9375,2.304680824279785
15-02-1990,2.953125,2.953125,152000,2.96875,2.953125,2.316938877105713
16-02-1990,2.96875,2.96875,32000,2.96875,2.96875,2.329197883605957
20-02-1990,2.953125,2.984375,23200,2.984375,2.953125,2.316938877105713
21-02-1990,2.90625,2.953125,553600,2.953125,2.90625,2.280163526535034
22-02-1990,2.84375,2.90625,148000,2.90625,2.84375,2.231125593185425
23-02-1990,2.6875,2.78125,575200,2.78125,2.71875,2.1330552101135254
26-02-1990,2.734375,2.734375,477600,2.75,2.75,2.1575729846954346
27-02-1990,2.765625,2.765625,357600,2.84375,2.84375,2.231125593185425
28-02-1990,2.796875,2.8125,145600,2.828125,2.796875,2.1943490505218506
01-03-1990,2.75,2.796875,225600,2.796875,2.75,2.1575729846954346
02-03-1990,2.6875,2.75,931200,2.78125,2.703125,2.120795488357544
05-03-1990,2.65625,2.671875,146400,2.703125,2.671875,2.0962769985198975
06-03-1990,2.625,2.671875,258400,2.734375,2.734375,2.145313262939453
07-03-1990,2.703125,2.734375,174400,2.75,2.75,2.1575729846954346
08-03-1990,2.734375,2.75,146400,2.796875,2.78125,2.1820907592773438
09-03-1990,2.734375,2.75,194400,2.78125,2.734375,2.145313262939453
12-03-1990,2.625,2.703125,1072800,2.71875,2.6875,2.108537197113037
13-03-1990,2.671875,2.671875,662400,2.6875,2.6875,2.108537197113037
14-03-1990,2.671875,2.671875,298400,2.765625,2.765625,2.1698312759399414
15-03-1990,2.71875,2.78125,192000,2.796875,2.71875,2.1330552101135254
16-03-1990,2.734375,2.75,271200,2.78125,2.78125,2.1820907592773438
19-03-1990,2.75,2.75,476000,2.765625,2.765625,2.1698312759399414
20-03-1990,2.75,2.75,898400,2.90625,2.796875,2.1943490505218506
21-03-1990,2.796875,2.796875,102400,2.8125,2.796875,2.1943490505218506
22-03-1990,2.75,2.75,177600,2.765625,2.765625,2.1698312759399414
23-03-1990,2.796875,2.796875,320000,2.796875,2.796875,2.1943490505218506
26-03-1990,2.75,2.78125,37600,2.78125,2.75,2.1575729846954346
27-03-1990,2.734375,2.734375,24000,2.75,2.75,2.1575729846954346
28-03-1990,2.84375,2.84375,706400,2.9375,2.921875,2.292421579360962
29-03-1990,2.890625,2.921875,361600,2.9375,2.90625,2.280163526535034
30-03-1990,2.921875,2.921875,161600,2.921875,2.921875,2.292421579360962
02-04-1990,2.84375,2.921875,184800,2.921875,2.875,2.2556443214416504
03-04-1990,2.875,2.875,358400,3.03125,2.984375,2.341456651687622
04-04-1990,2.90625,2.984375,364800,2.984375,2.90625,2.280163526535034
05-04-1990,2.90625,2.9375,373600,2.953125,2.90625,2.280163526535034
06-04-1990,2.78125,2.921875,810400,2.921875,2.78125,2.1820907592773438
09-04-1990,2.734375,2.734375,336800,2.765625,2.734375,2.1501455307006836
10-04-1990,2.71875,2.75,426400,2.8125,2.765625,2.1747183799743652
11-04-1990,2.71875,2.78125,234400,2.8125,2.734375,2.1501455307006836
12-04-1990,2.59375,2.71875,456000,2.734375,2.625,2.064140558242798
16-04-1990,2.640625,2.640625,273600,2.734375,2.703125,2.1255722045898438
17-04-1990,2.703125,2.71875,16800,2.71875,2.71875,2.1378588676452637
18-04-1990,2.6875,2.6875,333600,2.75,2.71875,2.1378588676452637
19-04-1990,2.671875,2.71875,207200,2.71875,2.6875,2.113286018371582
20-04-1990,2.65625,2.671875,168800,2.6875,2.671875,2.1009984016418457
23-04-1990,2.625,2.65625,173600,2.65625,2.625,2.064140558242798
24-04-1990,2.625,2.625,458400,2.671875,2.625,2.064140558242798
25-04-1990,2.640625,2.65625,104000,2.671875,2.65625,2.0887129306793213
26-04-1990,2.625,2.625,461600,2.6875,2.6875,2.113286018371582
27-04-1990,2.6875,2.6875,133600,2.703125,2.703125,2.1255722045898438
30-04-1990,2.6875,2.703125,68800,2.71875,2.71875,2.1378588676452637
01-05-1990,2.6875,2.71875,732800,2.828125,2.8125,2.2115790843963623
02-05-1990,2.765625,2.78125,575200,2.828125,2.8125,2.2115790843963623
03-05-1990,2.828125,2.84375,105600,2.859375,2.828125,2.2238645553588867
04-05-1990,2.78125,2.84375,279200,2.84375,2.78125,2.1870055198669434
07-05-1990,2.78125,2.78125,32800,2.84375,2.84375,2.2361507415771484
08-05-1990,2.828125,2.84375,48800,2.84375,2.828125,2.2238645553588867
09-05-1990,2.796875,2.84375,1232800,2.859375,2.796875,2.199291229248047
10-05-1990,2.796875,2.8125,428000,2.84375,2.796875,2.199291229248047
11-05-1990,2.828125,2.828125,172000,2.875,2.875,2.2607250213623047
14-05-1990,2.75,2.890625,2418400,2.890625,2.75,2.162432909011841
15-05-1990,2.75,2.78125,5804800,2.828125,2.8125,2.2115790843963623
16-05-1990,2.8125,2.8125,367200,2.96875,2.90625,2.2852985858917236
17-05-1990,2.921875,2.921875,196000,2.953125,2.953125,2.322157382965088
18-05-1990,2.96875,2.96875,181600,3.0,3.0,2.359016180038452
21-05-1990,2.921875,2.96875,74400,2.96875,2.953125,2.322157382965088
22-05-1990,2.96875,2.984375,40800,2.984375,2.96875,2.334444046020508
23-05-1990,2.90625,2.96875,30400,2.96875,2.90625,2.2852985858917236
24-05-1990,2.75,2.921875,483200,2.921875,2.8125,2.2115790843963623
25-05-1990,2.75,2.8125,817600,2.875,2.875,2.2607250213623047
29-05-1990,2.890625,2.890625,60800,2.90625,2.90625,2.2852985858917236
30-05-1990,2.921875,2.9375,129600,2.984375,2.96875,2.334444046020508
31-05-1990,2.90625,2.9375,143200,2.984375,2.96875,2.334444046020508
01-06-1990,2.953125,2.96875,47200,2.984375,2.96875,2.334444046020508
04-06-1990,2.90625,2.9375,68000,2.984375,2.984375,2.3467302322387695
05-06-1990,2.796875,2.984375,1125600,3.0,2.890625,2.273009777069092
06-06-1990,2.875,2.890625,44000,2.90625,2.875,2.2607250213623047
07-06-1990,2.859375,2.890625,212800,2.890625,2.859375,2.2484374046325684
08-06-1990,2.8125,2.875,405600,2.875,2.84375,2.2361507415771484
11-06-1990,2.84375,2.859375,48800,2.890625,2.875,2.2607250213623047
12-06-1990,2.859375,2.90625,196000,3.0,2.984375,2.3467302322387695
13-06-1990,2.96875,2.96875,208000,3.09375,2.96875,2.334444046020508
14-06-1990,2.9375,2.953125,20800,2.984375,2.984375,2.3467302322387695
15-06-1990,2.921875,2.984375,158400,2.984375,2.96875,2.334444046020508
18-06-1990,2.96875,2.96875,1600,2.96875,2.96875,2.334444046020508
19-06-1990,2.875,2.9375,174400,2.9375,2.921875,2.2975847721099854
20-06-1990,2.90625,2.953125,127200,2.953125,2.9375,2.3098716735839844
21-06-1990,2.921875,2.921875,6400,2.9375,2.9375,2.3098716735839844
22-06-1990,2.921875,2.9375,356800,2.953125,2.953125,2.322157382965088
25-06-1990,2.90625,2.921875,24800,2.9375,2.921875,2.2975847721099854
26-06-1990,2.859375,2.90625,207200,2.921875,2.921875,2.2975847721099854
27-06-1990,2.921875,2.921875,13600,2.9375,2.921875,2.2975847721099854
28-06-1990,2.9375,2.9375,157600,2.96875,2.96875,2.334444046020508
29-06-1990,2.953125,2.984375,327200,2.984375,2.96875,2.334444046020508
02-07-1990,2.875,2.953125,322400,2.953125,2.90625,2.2852985858917236
03-07-1990,2.875,2.9375,308800,2.9375,2.875,2.2607250213623047
05-07-1990,2.8125,2.84375,596800,2.84375,2.828125,2.2238645553588867
06-07-1990,2.78125,2.78125,82400,2.796875,2.796875,2.199291229248047
09-07-1990,2.75,2.796875,724800,2.8125,2.78125,2.1870055198669434
10-07-1990,2.765625,2.78125,1073600,2.78125,2.78125,2.1919302940368652
11-07-1990,2.78125,2.78125,776000,2.8125,2.796875,2.2042458057403564
12-07-1990,2.796875,2.796875,1208800,2.90625,2.875,2.2658169269561768
13-07-1990,2.90625,2.90625,568000,3.0,2.96875,2.3397021293640137
16-07-1990,2.96875,2.984375,680800,3.0,2.96875,2.3397021293640137
17-07-1990,2.921875,2.96875,102400,2.96875,2.921875,2.30275821685791
18-07-1990,2.84375,2.921875,348000,2.921875,2.84375,2.2411868572235107
19-07-1990,2.796875,2.8125,465600,2.875,2.875,2.2658169269561768
20-07-1990,2.890625,2.890625,51200,2.90625,2.890625,2.278128147125244
23-07-1990,2.859375,2.875,349600,2.9375,2.9375,2.315073013305664
24-07-1990,2.90625,2.90625,353600,3.015625,2.984375,2.352015733718872
25-07-1990,3.0,3.015625,52000,3.03125,3.03125,2.388957977294922
26-07-1990,3.03125,3.0625,80000,3.0625,3.0625,2.4135873317718506
27-07-1990,2.984375,3.03125,75200,3.0625,2.984375,2.352015733718872
30-07-1990,2.984375,3.0,160800,3.0,3.0,2.364330291748047
31-07-1990,2.953125,2.953125,175200,3.015625,3.0,2.364330291748047
01-08-1990,3.0,3.03125,134400,3.0625,3.015625,2.3766441345214844
02-08-1990,3.03125,3.125,1056800,3.171875,3.171875,2.499786138534546
03-08-1990,3.109375,3.15625,1272000,3.265625,3.203125,2.524414539337158
06-08-1990,3.125,3.25,247200,3.265625,3.125,2.4628446102142334
07-08-1990,3.125,3.125,148800,3.140625,3.140625,2.4751577377319336
08-08-1990,3.09375,3.125,170400,3.140625,3.09375,2.438215732574463
09-08-1990,3.0625,3.09375,296000,3.09375,3.09375,2.438215732574463
10-08-1990,3.09375,3.09375,299200,3.109375,3.09375,2.438215732574463
13-08-1990,3.078125,3.109375,56800,3.125,3.078125,2.4258999824523926
14-08-1990,3.0625,3.109375,49600,3.109375,3.0625,2.4135873317718506
15-08-1990,3.0625,3.0625,196000,3.15625,3.125,2.4628446102142334
16-08-1990,3.078125,3.109375,140000,3.125,3.109375,2.4505293369293213
17-08-1990,3.125,3.140625,201600,3.1875,3.140625,2.4751577377319336
20-08-1990,3.046875,3.15625,239200,3.15625,3.046875,2.4012720584869385
21-08-1990,3.0625,3.0625,452000,3.09375,3.078125,2.4258999824523926
22-08-1990,3.015625,3.0625,333600,3.09375,3.015625,2.3766441345214844
23-08-1990,2.9375,3.0,364000,3.0,2.96875,2.3397021293640137
24-08-1990,2.921875,2.921875,326400,3.0,3.0,2.364330291748047
27-08-1990,2.953125,3.0,88000,3.0,2.953125,2.3273870944976807
28-08-1990,2.953125,2.953125,8000,2.984375,2.984375,2.352015733718872
29-08-1990,2.9375,3.015625,140800,3.015625,2.9375,2.315073013305664
30-08-1990,2.90625,2.953125,65600,2.984375,2.984375,2.352015733718872
31-08-1990,2.890625,2.953125,256800,2.984375,2.921875,2.30275821685791
04-09-1990,2.9375,2.9375,20000,2.953125,2.953125,2.3273870944976807
05-09-1990,2.953125,2.953125,223200,3.1875,3.171875,2.499786138534546
06-09-1990,3.1875,3.203125,317600,3.296875,3.296875,2.5983002185821533
07-09-1990,3.296875,3.296875,160800,3.359375,3.359375,2.647557020187378
10-09-1990,3.328125,3.328125,1408800,3.390625,3.359375,2.647557020187378
11-09-1990,3.1875,3.375,963200,3.375,3.3125,2.6106135845184326
12-09-1990,3.265625,3.34375,336000,3.34375,3.3125,2.6106135845184326
13-09-1990,3.25,3.3125,405600,3.328125,3.25,2.561357259750366
14-09-1990,3.25,3.25,209600,3.390625,3.390625,2.672184705734253
17-09-1990,3.375,3.390625,1116000,3.46875,3.46875,2.7337560653686523
18-09-1990,3.46875,3.46875,776800,3.765625,3.671875,2.8938419818878174
19-09-1990,3.65625,3.6875,1624800,3.6875,3.65625,2.881525754928589
20-09-1990,3.53125,3.65625,432000,3.65625,3.53125,2.783012628555298
21-09-1990,3.46875,3.484375,521600,3.5625,3.5625,2.8076412677764893
24-09-1990,3.484375,3.5625,112800,3.5625,3.515625,2.7706985473632812
25-09-1990,3.5,3.5,221600,3.515625,3.515625,2.7706985473632812
26-09-1990,3.453125,3.515625,55200,3.515625,3.46875,2.7337560653686523
27-09-1990,3.375,3.4375,72800,3.453125,3.375,2.6598711013793945
28-09-1990,3.28125,3.375,163200,3.375,3.34375,2.635244131088257
01-10-1990,3.296875,3.328125,455200,3.390625,3.34375,2.635244131088257
02-10-1990,3.328125,3.359375,72000,3.359375,3.359375,2.647557020187378
03-10-1990,3.3125,3.34375,26400,3.34375,3.34375,2.635244131088257
04-10-1990,3.25,3.34375,313600,3.34375,3.25,2.561357259750366
05-10-1990,3.1875,3.234375,550400,3.296875,3.1875,2.512101650238037
08-10-1990,3.1875,3.203125,411200,3.234375,3.1875,2.512101650238037
09-10-1990,3.203125,3.203125,298400,3.375,3.34375,2.640420913696289
10-10-1990,3.21875,3.34375,200000,3.34375,3.234375,2.554051160812378
11-10-1990,3.203125,3.25,34400,3.25,3.21875,2.5417122840881348
12-10-1990,3.171875,3.1875,89600,3.203125,3.203125,2.529374361038208
15-10-1990,3.15625,3.203125,36800,3.203125,3.15625,2.492358922958374
16-10-1990,3.109375,3.140625,153600,3.15625,3.109375,2.455343246459961
17-10-1990,3.09375,3.109375,11200,3.125,3.125,2.4676826000213623
18-10-1990,3.109375,3.109375,113600,3.125,3.109375,2.455343246459961
19-10-1990,3.078125,3.109375,36800,3.109375,3.09375,2.443005323410034
22-10-1990,3.0625,3.109375,68000,3.109375,3.0625,2.4183285236358643
23-10-1990,3.0625,3.0625,17600,3.109375,3.109375,2.455343246459961
24-10-1990,3.125,3.125,120000,3.15625,3.15625,2.492358922958374
25-10-1990,3.1875,3.1875,112800,3.328125,3.328125,2.628082752227783
26-10-1990,3.3125,3.3125,22400,3.359375,3.359375,2.652759075164795
29-10-1990,3.359375,3.375,16000,3.375,3.359375,2.652759075164795
30-10-1990,3.28125,3.34375,29600,3.359375,3.296875,2.603404998779297
31-10-1990,3.3125,3.3125,366400,3.453125,3.375,2.66509747505188
01-11-1990,3.359375,3.375,163200,3.375,3.375,2.66509747505188
02-11-1990,3.375,3.375,469600,3.53125,3.5,2.7638044357299805
05-11-1990,3.46875,3.53125,426400,3.546875,3.46875,2.739126443862915
06-11-1990,3.421875,3.484375,8800,3.484375,3.421875,2.702112913131714
07-11-1990,3.375,3.421875,148000,3.421875,3.375,2.66509747505188
08-11-1990,3.34375,3.34375,37600,3.390625,3.390625,2.677436351776123
09-11-1990,3.375,3.375,397600,3.4375,3.421875,2.702112913131714
12-11-1990,3.328125,3.390625,76800,3.390625,3.328125,2.628082752227783
13-11-1990,3.109375,3.15625,208000,3.15625,3.109375,2.455343246459961
14-11-1990,3.109375,3.125,75200,3.1875,3.1875,2.5170364379882812
15-11-1990,3.125,3.15625,45600,3.171875,3.140625,2.480020761489868
16-11-1990,3.09375,3.140625,300800,3.15625,3.15625,2.492358922958374
19-11-1990,2.984375,3.15625,456800,3.15625,2.984375,2.356635808944702
20-11-1990,2.84375,2.96875,329600,2.96875,2.921875,2.307283401489258
21-11-1990,2.890625,2.90625,32800,2.96875,2.96875,2.3442986011505127
23-11-1990,2.96875,2.96875,18400,2.984375,2.96875,2.3442986011505127
26-11-1990,2.96875,2.984375,40000,3.0,2.96875,2.3442986011505127
27-11-1990,2.9375,2.984375,39200,2.984375,2.953125,2.331958532333374
28-11-1990,2.90625,2.953125,145600,2.953125,2.921875,2.307283401489258
29-11-1990,2.90625,2.90625,36800,2.90625,2.90625,2.29494571685791
30-11-1990,2.765625,2.875,236000,2.890625,2.8125,2.220914125442505
03-12-1990,2.609375,2.796875,366400,2.796875,2.75,2.171560287475586
04-12-1990,2.671875,2.734375,230400,2.734375,2.71875,2.146883964538574
05-12-1990,2.71875,2.71875,432000,2.796875,2.78125,2.1962368488311768
06-12-1990,2.734375,2.78125,248800,2.8125,2.75,2.171560287475586
07-12-1990,2.625,2.71875,257600,2.71875,2.71875,2.146883964538574
10-12-1990,2.703125,2.734375,179200,2.734375,2.71875,2.146883964538574
11-12-1990,2.703125,2.703125,981600,2.78125,2.734375,2.159221887588501
12-12-1990,2.734375,2.75,493600,2.78125,2.78125,2.1962368488311768
13-12-1990,2.71875,2.75,908000,2.75,2.71875,2.146883964538574
14-12-1990,2.65625,2.71875,207200,2.78125,2.78125,2.1962368488311768
17-12-1990,2.734375,2.796875,89600,2.828125,2.734375,2.159221887588501
18-12-1990,2.703125,2.765625,153600,2.796875,2.703125,2.134544849395752
19-12-1990,2.640625,2.703125,277600,2.734375,2.640625,2.085191488265991
20-12-1990,2.546875,2.609375,1007200,2.609375,2.5625,2.023498773574829
21-12-1990,2.484375,2.484375,980000,2.515625,2.5,1.9741464853286743
24-12-1990,2.5,2.5,222400,2.546875,2.546875,2.0111618041992188
26-12-1990,2.5625,2.5625,93600,2.75,2.75,2.171560287475586
27-12-1990,2.71875,2.75,51200,2.75,2.734375,2.159221887588501
28-12-1990,2.65625,2.71875,49600,2.71875,2.65625,2.0975306034088135
31-12-1990,2.53125,2.65625,364800,2.65625,2.65625,2.0975306034088135
02-01-1991,2.59375,2.625,36000,2.625,2.59375,2.0481760501861572
03-01-1991,2.484375,2.59375,413600,2.59375,2.484375,1.9618079662322998
04-01-1991,2.328125,2.4375,216800,2.4375,2.328125,1.8384240865707397
07-01-1991,2.21875,2.296875,599200,2.3125,2.265625,1.7890697717666626
08-01-1991,2.15625,2.25,679200,2.265625,2.15625,1.7027008533477783
09-01-1991,2.140625,2.171875,572000,2.1875,2.140625,1.6952767372131348
10-01-1991,2.09375,2.125,296000,2.140625,2.140625,1.6952767372131348
11-01-1991,2.109375,2.109375,278400,2.21875,2.21875,1.7571485042572021
14-01-1991,2.21875,2.234375,172800,2.265625,2.25,1.7818962335586548
15-01-1991,2.171875,2.25,92800,2.25,2.234375,1.7695220708847046
16-01-1991,2.171875,2.234375,50400,2.25,2.203125,1.7447736263275146
17-01-1991,2.03125,2.1875,1341600,2.25,2.203125,1.7447736263275146
18-01-1991,2.15625,2.203125,275200,2.21875,2.1875,1.7323986291885376
21-01-1991,2.0625,2.15625,550400,2.15625,2.125,1.6829028129577637
22-01-1991,2.125,2.15625,174400,2.171875,2.125,1.6829028129577637
23-01-1991,2.140625,2.140625,837600,2.265625,2.25,1.7818962335586548
24-01-1991,2.265625,2.3125,495200,2.34375,2.28125,1.8066446781158447
25-01-1991,2.21875,2.3125,817600,2.375,2.25,1.7818962335586548
28-01-1991,2.203125,2.28125,679200,2.296875,2.234375,1.7695220708847046
29-01-1991,2.25,2.25,99200,2.265625,2.25,1.7818962335586548
30-01-1991,2.203125,2.21875,132000,2.25,2.234375,1.7695220708847046
31-01-1991,2.15625,2.21875,384800,2.21875,2.171875,1.7200244665145874
01-02-1991,2.15625,2.15625,869600,2.21875,2.21875,1.7571485042572021
04-02-1991,2.203125,2.21875,961600,2.28125,2.25,1.7818962335586548
05-02-1991,2.25,2.25,1217600,2.375,2.28125,1.8066446781158447
06-02-1991,2.28125,2.28125,1186400,2.5,2.484375,1.9675110578536987
07-02-1991,2.546875,2.546875,1224000,2.78125,2.6875,2.128375291824341
08-02-1991,2.640625,2.65625,94400,2.6875,2.671875,2.1160025596618652
11-02-1991,2.640625,2.6875,307200,2.75,2.703125,2.140749931335449
12-02-1991,2.59375,2.734375,216000,2.734375,2.59375,2.0541300773620605
13-02-1991,2.625,2.625,45600,2.703125,2.703125,2.140749931335449
14-02-1991,2.515625,2.6875,148800,2.6875,2.515625,1.9922584295272827
15-02-1991,2.484375,2.484375,356800,2.609375,2.609375,2.0665061473846436
19-02-1991,2.515625,2.59375,160800,2.59375,2.546875,2.0170083045959473
20-02-1991,2.515625,2.546875,219200,2.625,2.625,2.078880786895752
21-02-1991,2.59375,2.609375,188000,2.625,2.59375,2.0541300773620605
22-02-1991,2.453125,2.59375,408000,2.59375,2.453125,1.9427616596221924
25-02-1991,2.328125,2.453125,88800,2.453125,2.328125,1.8437684774398804
26-02-1991,2.265625,2.3125,776800,2.328125,2.3125,1.8313934803009033
27-02-1991,2.34375,2.34375,1544000,2.453125,2.4375,1.930387020111084
28-02-1991,2.453125,2.46875,578400,2.59375,2.59375,2.0541300773620605
01-03-1991,2.53125,2.59375,692800,2.59375,2.546875,2.0170083045959473
04-03-1991,2.546875,2.546875,555200,2.609375,2.59375,2.0541300773620605
05-03-1991,2.5625,2.5625,418400,2.578125,2.578125,2.0417556762695312
06-03-1991,2.546875,2.546875,180800,2.59375,2.5625,2.0293803215026855
07-03-1991,2.5625,2.5625,280800,2.625,2.625,2.078880786895752
08-03-1991,2.59375,2.625,442400,2.78125,2.671875,2.1160025596618652
11-03-1991,2.6875,2.6875,116000,2.75,2.71875,2.153125524520874
12-03-1991,2.6875,2.75,163200,2.75,2.6875,2.128375291824341
13-03-1991,2.59375,2.671875,147200,2.671875,2.59375,2.0541300773620605
14-03-1991,2.546875,2.578125,184000,2.59375,2.5625,2.0293803215026855
15-03-1991,2.546875,2.546875,289600,2.65625,2.625,2.078880786895752
18-03-1991,2.625,2.640625,136000,2.6875,2.6875,2.128375291824341
19-03-1991,2.609375,2.65625,172000,2.65625,2.625,2.078880786895752
20-03-1991,2.625,2.625,71200,2.65625,2.65625,2.103628396987915
21-03-1991,2.65625,2.671875,327200,2.734375,2.734375,2.165498971939087
22-03-1991,2.703125,2.734375,93600,2.734375,2.703125,2.140749931335449
25-03-1991,2.640625,2.71875,115200,2.71875,2.703125,2.140749931335449
26-03-1991,2.625,2.671875,447200,2.6875,2.65625,2.103628396987915
27-03-1991,2.578125,2.640625,86400,2.640625,2.578125,2.0417556762695312
28-03-1991,2.515625,2.578125,70400,2.59375,2.515625,1.9922584295272827
01-04-1991,2.453125,2.53125,128000,2.53125,2.453125,1.9427616596221924
02-04-1991,2.359375,2.46875,367200,2.46875,2.375,1.88089120388031
03-04-1991,2.3125,2.359375,1358400,2.4375,2.3125,1.8313934803009033
04-04-1991,2.34375,2.34375,1049600,2.40625,2.40625,1.9056388139724731
05-04-1991,2.421875,2.421875,73600,2.484375,2.484375,1.9675110578536987
08-04-1991,2.4375,2.46875,24000,2.46875,2.4375,1.930387020111084
09-04-1991,2.375,2.40625,198400,2.4375,2.4375,1.930387020111084
10-04-1991,2.34375,2.421875,198400,2.421875,2.390625,1.8981313705444336
11-04-1991,2.359375,2.40625,255200,2.4375,2.40625,1.9105377197265625
12-04-1991,2.390625,2.40625,398400,2.46875,2.46875,1.9601634740829468
15-04-1991,2.5,2.5,258400,2.5625,2.546875,2.0221939086914062
16-04-1991,2.53125,2.53125,468000,2.640625,2.625,2.0842244625091553
17-04-1991,2.578125,2.640625,662400,2.640625,2.578125,2.0470051765441895
18-04-1991,2.609375,2.609375,68800,2.640625,2.625,2.0842244625091553
19-04-1991,2.5625,2.609375,20000,2.625,2.578125,2.0470051765441895
22-04-1991,2.484375,2.578125,263200,2.578125,2.5,1.9849748611450195
23-04-1991,2.453125,2.484375,69600,2.5,2.5,1.9849748611450195
24-04-1991,2.46875,2.5,44800,2.5,2.5,1.9849748611450195
25-04-1991,2.46875,2.484375,70400,2.484375,2.46875,1.9601634740829468
26-04-1991,2.421875,2.453125,24000,2.453125,2.4375,1.9353495836257935
29-04-1991,2.34375,2.421875,373600,2.421875,2.34375,1.8609137535095215
30-04-1991,2.328125,2.375,1024800,2.375,2.375,1.8857263326644897
01-05-1991,2.34375,2.375,403200,2.421875,2.421875,1.9229437112808228
02-05-1991,2.375,2.40625,714400,2.40625,2.375,1.8857263326644897
03-05-1991,2.359375,2.40625,464000,2.4375,2.390625,1.8981313705444336
06-05-1991,2.359375,2.375,11200,2.375,2.359375,1.8733192682266235
07-05-1991,2.28125,2.375,360800,2.375,2.34375,1.8609137535095215
08-05-1991,2.328125,2.34375,567200,2.453125,2.4375,1.9353495836257935
09-05-1991,2.40625,2.453125,150400,2.46875,2.46875,1.9601634740829468
10-05-1991,2.375,2.453125,88800,2.453125,2.375,1.8857263326644897
13-05-1991,2.28125,2.359375,872000,2.359375,2.28125,1.8112891912460327
14-05-1991,2.28125,2.28125,366400,2.375,2.3125,1.8361016511917114
15-05-1991,2.3125,2.3125,276000,2.40625,2.390625,1.8981313705444336
16-05-1991,2.421875,2.453125,404000,2.46875,2.421875,1.9229437112808228
17-05-1991,2.390625,2.421875,25600,2.421875,2.40625,1.9105377197265625
20-05-1991,2.390625,2.40625,121600,2.4375,2.40625,1.9105377197265625
21-05-1991,2.34375,2.4375,480800,2.4375,2.375,1.8857263326644897
22-05-1991,2.375,2.375,31200,2.390625,2.390625,1.8981313705444336
23-05-1991,2.375,2.40625,240800,2.421875,2.40625,1.9105377197265625
24-05-1991,2.375,2.421875,160800,2.453125,2.390625,1.8981313705444336
28-05-1991,2.375,2.375,60000,2.453125,2.4375,1.9353495836257935
29-05-1991,2.421875,2.4375,334400,2.4375,2.4375,1.9353495836257935
30-05-1991,2.421875,2.4375,521600,2.5,2.5,1.9849748611450195
31-05-1991,2.53125,2.53125,1612000,2.625,2.625,2.0842244625091553
03-06-1991,2.609375,2.65625,256000,2.6875,2.625,2.0842244625091553
04-06-1991,2.625,2.65625,1272800,2.671875,2.625,2.0842244625091553
05-06-1991,2.578125,2.625,141600,2.625,2.578125,2.0470051765441895
06-06-1991,2.5625,2.5625,201600,2.609375,2.59375,2.059410333633423
07-06-1991,2.53125,2.59375,473600,2.59375,2.53125,2.0097873210906982
10-06-1991,2.53125,2.546875,168000,2.5625,2.53125,2.0097873210906982
11-06-1991,2.4375,2.53125,155200,2.53125,2.5,1.9849748611450195
12-06-1991,2.484375,2.5,51200,2.5,2.5,1.9849748611450195
13-06-1991,2.484375,2.5,1600,2.5,2.484375,1.9725691080093384
14-06-1991,2.46875,2.46875,83200,2.46875,2.46875,1.9601634740829468
17-06-1991,2.453125,2.46875,21600,2.46875,2.453125,1.9477558135986328
18-06-1991,2.4375,2.46875,341600,2.46875,2.46875,1.9601634740829468
19-06-1991,2.46875,2.46875,170400,2.5,2.5,1.9849748611450195
20-06-1991,2.375,2.4375,30400,2.4375,2.375,1.8857263326644897
21-06-1991,2.3125,2.34375,251200,2.375,2.34375,1.8609137535095215
24-06-1991,2.3125,2.359375,124800,2.375,2.375,1.8857263326644897
25-06-1991,2.359375,2.375,39200,2.375,2.359375,1.8733192682266235
26-06-1991,2.296875,2.328125,188000,2.359375,2.3125,1.8361016511917114
27-06-1991,2.28125,2.3125,260800,2.34375,2.3125,1.8361016511917114
28-06-1991,2.25,2.3125,418400,2.3125,2.25,1.7864770889282227
01-07-1991,2.203125,2.25,188800,2.25,2.203125,1.749259114265442
02-07-1991,2.21875,2.21875,127200,2.25,2.234375,1.7740708589553833
03-07-1991,2.203125,2.203125,267200,2.28125,2.25,1.7864770889282227
05-07-1991,2.25,2.25,3200,2.25,2.25,1.7864770889282227
08-07-1991,2.25,2.25,192800,2.296875,2.296875,1.8236939907073975
09-07-1991,2.234375,2.28125,359200,2.3125,2.265625,1.8037917613983154
10-07-1991,2.234375,2.25,56000,2.25,2.234375,1.7789115905761719
11-07-1991,2.25,2.25,152800,2.328125,2.3125,1.8411115407943726
12-07-1991,2.28125,2.34375,1025600,2.359375,2.296875,1.8286707401275635
15-07-1991,2.328125,2.328125,791200,2.375,2.375,1.8908714056015015
16-07-1991,2.34375,2.359375,1204800,2.421875,2.421875,1.9281904697418213
17-07-1991,2.4375,2.453125,1052000,2.59375,2.59375,2.0650298595428467
18-07-1991,2.625,2.625,304800,2.671875,2.671875,2.1272292137145996
19-07-1991,2.609375,2.671875,73600,2.671875,2.625,2.0899112224578857
22-07-1991,2.5625,2.625,72000,2.625,2.59375,2.0650298595428467
23-07-1991,2.578125,2.609375,124000,2.625,2.578125,2.0525903701782227
24-07-1991,2.578125,2.578125,39200,2.59375,2.578125,2.0525903701782227
25-07-1991,2.5625,2.5625,232800,2.578125,2.5625,2.040149450302124
26-07-1991,2.5625,2.5625,226400,2.59375,2.59375,2.0650298595428467
29-07-1991,2.59375,2.609375,6400,2.609375,2.609375,2.0774710178375244
30-07-1991,2.59375,2.59375,582400,2.65625,2.625,2.0899112224578857
31-07-1991,2.53125,2.5625,698400,2.578125,2.53125,2.0152699947357178
01-08-1991,2.53125,2.53125,248800,2.578125,2.5625,2.040149450302124
02-08-1991,2.546875,2.546875,71200,2.546875,2.546875,2.027709484100342
05-08-1991,2.546875,2.5625,96800,2.578125,2.5625,2.040149450302124
06-08-1991,2.5625,2.5625,457600,2.625,2.59375,2.0650298595428467
07-08-1991,2.59375,2.59375,733600,2.625,2.625,2.0899112224578857
08-08-1991,2.625,2.640625,413600,2.6875,2.640625,2.1023504734039307
09-08-1991,2.625,2.625,111200,2.65625,2.65625,2.114790678024292
12-08-1991,2.640625,2.6875,223200,2.703125,2.65625,2.114790678024292
13-08-1991,2.640625,2.640625,118400,2.6875,2.6875,2.13966965675354
14-08-1991,2.671875,2.671875,372000,2.75,2.75,2.1894290447235107
15-08-1991,2.71875,2.75,369600,2.75,2.75,2.1894290447235107
16-08-1991,2.703125,2.734375,490400,2.734375,2.703125,2.152109146118164
19-08-1991,2.609375,2.671875,91200,2.671875,2.609375,2.0774710178375244
20-08-1991,2.609375,2.609375,22400,2.625,2.625,2.0899112224578857
21-08-1991,2.609375,2.625,78400,2.625,2.625,2.0899112224578857
22-08-1991,2.5625,2.640625,292800,2.640625,2.59375,2.0650298595428467
23-08-1991,2.59375,2.59375,1125600,2.75,2.75,2.1894290447235107
26-08-1991,2.734375,2.75,183200,2.78125,2.75,2.1894290447235107
27-08-1991,2.75,2.75,362400,2.84375,2.8125,2.2391881942749023
28-08-1991,2.828125,2.84375,203200,2.953125,2.9375,2.338707447052002
29-08-1991,2.921875,2.921875,416800,3.0,2.953125,2.3511481285095215
30-08-1991,2.90625,2.96875,236800,2.96875,2.921875,2.3262693881988525
03-09-1991,2.78125,2.890625,230400,2.890625,2.78125,2.214308261871338
04-09-1991,2.75,2.765625,175200,2.8125,2.765625,2.2018678188323975
05-09-1991,2.796875,2.796875,309600,2.828125,2.8125,2.2391881942749023
06-09-1991,2.78125,2.8125,55200,2.828125,2.828125,2.25162935256958
09-09-1991,2.8125,2.8125,8000,2.84375,2.84375,2.2640695571899414
10-09-1991,2.8125,2.828125,452800,2.84375,2.84375,2.2640695571899414
11-09-1991,2.8125,2.828125,145600,2.84375,2.84375,2.2640695571899414
12-09-1991,2.84375,2.859375,48000,2.859375,2.84375,2.2640695571899414
13-09-1991,2.828125,2.875,366400,2.875,2.84375,2.2640695571899414
16-09-1991,2.828125,2.859375,433600,2.859375,2.84375,2.2640695571899414
17-09-1991,2.84375,2.84375,648800,2.890625,2.890625,2.301386594772339
18-09-1991,2.90625,2.90625,136800,2.9375,2.9375,2.338707447052002
19-09-1991,2.921875,2.953125,153600,3.03125,3.03125,2.41334867477417
20-09-1991,3.0,3.078125,312000,3.078125,3.03125,2.41334867477417
23-09-1991,2.96875,3.0625,113600,3.0625,2.96875,2.3635878562927246
24-09-1991,2.875,2.96875,77600,2.96875,2.875,2.2889482975006104
25-09-1991,2.875,2.890625,7200,2.890625,2.875,2.2889482975006104
26-09-1991,2.875,2.90625,296000,2.953125,2.953125,2.3511481285095215
27-09-1991,2.953125,2.96875,70400,3.0,2.96875,2.3635878562927246
30-09-1991,2.953125,2.953125,229600,2.984375,2.984375,2.376028060913086
01-10-1991,2.859375,2.984375,1317600,3.0,2.859375,2.276508092880249
02-10-1991,2.84375,2.84375,740800,2.9375,2.90625,2.3138296604156494
03-10-1991,2.890625,2.90625,106400,2.90625,2.890625,2.301386594772339
04-10-1991,2.859375,2.875,599200,2.890625,2.890625,2.301386594772339
07-10-1991,2.859375,2.875,973600,2.9375,2.9375,2.338707447052002
08-10-1991,2.90625,2.9375,735200,2.953125,2.9375,2.3436951637268066
09-10-1991,2.90625,2.9375,43200,2.9375,2.90625,2.3187623023986816
10-10-1991,2.875,2.90625,144000,2.921875,2.90625,2.3187623023986816
11-10-1991,2.90625,2.921875,23200,2.921875,2.921875,2.331228733062744
14-10-1991,2.9375,2.9375,32000,2.984375,2.96875,2.36862850189209
15-10-1991,2.984375,2.984375,181600,3.015625,3.015625,2.4060258865356445
16-10-1991,3.0,3.046875,104000,3.078125,3.0,2.393562078475952
17-10-1991,2.984375,3.0,89600,3.03125,3.03125,2.418494462966919
18-10-1991,3.0,3.046875,87200,3.046875,3.0,2.393562078475952
21-10-1991,2.984375,2.984375,3200,2.984375,2.984375,2.3810954093933105
22-10-1991,2.875,2.953125,495200,2.953125,2.875,2.293830156326294
23-10-1991,2.890625,2.953125,95200,2.953125,2.890625,2.3062946796417236
24-10-1991,2.84375,2.875,35200,2.875,2.84375,2.2688963413238525
25-10-1991,2.75,2.8125,277600,2.8125,2.765625,2.206563711166382
28-10-1991,2.75,2.75,181600,2.84375,2.84375,2.2688963413238525
29-10-1991,2.75,2.859375,404800,2.859375,2.765625,2.206563711166382
30-10-1991,2.78125,2.78125,12800,2.796875,2.796875,2.231497287750244
31-10-1991,2.796875,2.8125,37600,2.84375,2.84375,2.2688963413238525
01-11-1991,2.84375,2.859375,62400,2.9375,2.9375,2.3436951637268066
04-11-1991,2.921875,2.921875,624800,3.078125,3.03125,2.418494462966919
05-11-1991,3.046875,3.046875,421600,3.140625,3.109375,2.4808263778686523
06-11-1991,3.03125,3.140625,228000,3.140625,3.03125,2.418494462966919
07-11-1991,3.0,3.046875,206400,3.046875,3.03125,2.418494462966919
08-11-1991,3.015625,3.015625,96800,3.0625,3.0625,2.443427324295044
11-11-1991,3.03125,3.0625,20000,3.0625,3.03125,2.418494462966919
12-11-1991,3.0,3.0,71200,3.046875,3.03125,2.418494462966919
13-11-1991,3.03125,3.03125,127200,3.140625,3.125,2.493292808532715
14-11-1991,3.015625,3.125,102400,3.125,3.03125,2.418494462966919
15-11-1991,2.890625,3.015625,141600,3.015625,2.9375,2.3436951637268066
18-11-1991,2.875,2.9375,236800,2.9375,2.875,2.293830156326294
19-11-1991,2.8125,2.890625,143200,2.890625,2.8125,2.2439637184143066
20-11-1991,2.78125,2.796875,144000,2.796875,2.78125,2.2190306186676025
21-11-1991,2.78125,2.78125,202400,2.84375,2.796875,2.231497287750244
22-11-1991,2.75,2.78125,97600,2.78125,2.75,2.194098711013794
25-11-1991,2.75,2.75,16800,2.765625,2.765625,2.206563711166382
26-11-1991,2.609375,2.75,346400,2.75,2.625,2.0943663120269775
27-11-1991,2.625,2.640625,76800,2.65625,2.625,2.0943663120269775
29-11-1991,2.640625,2.640625,28800,2.65625,2.65625,2.119298219680786
02-12-1991,2.59375,2.65625,299200,2.671875,2.59375,2.06943416595459
03-12-1991,2.59375,2.59375,97600,2.65625,2.65625,2.119298219680786
04-12-1991,2.625,2.65625,20800,2.65625,2.625,2.0943663120269775
05-12-1991,2.625,2.625,96800,2.6875,2.640625,2.1068336963653564
06-12-1991,2.640625,2.640625,858400,2.65625,2.640625,2.1068336963653564
09-12-1991,2.59375,2.625,57600,2.625,2.59375,2.06943416595459
10-12-1991,2.484375,2.5625,171200,2.5625,2.5,1.9946345090866089
11-12-1991,2.453125,2.515625,415200,2.5625,2.546875,2.032033681869507
12-12-1991,2.515625,2.515625,124000,2.53125,2.53125,2.019566774368286
13-12-1991,2.5,2.53125,319200,2.53125,2.5,1.9946345090866089
16-12-1991,2.484375,2.5,372800,2.515625,2.515625,2.007101058959961
17-12-1991,2.515625,2.515625,683200,2.53125,2.53125,2.019566774368286
18-12-1991,2.546875,2.546875,112800,2.578125,2.578125,2.0569663047790527
19-12-1991,2.53125,2.5625,392800,2.5625,2.546875,2.032033681869507
20-12-1991,2.5,2.53125,164800,2.53125,2.515625,2.007101058959961
23-12-1991,2.421875,2.5,1115200,2.5,2.421875,1.932302713394165
24-12-1991,2.40625,2.421875,107200,2.515625,2.515625,2.007101058959961
26-12-1991,2.5,2.5,15200,2.515625,2.5,1.9946345090866089
27-12-1991,2.46875,2.5,48000,2.5,2.46875,1.9697015285491943
30-12-1991,2.421875,2.46875,920800,2.46875,2.4375,1.9447678327560425
31-12-1991,2.421875,2.4375,116000,2.484375,2.4375,1.9447678327560425
02-01-1992,2.390625,2.421875,732000,2.421875,2.390625,1.9073690176010132
03-01-1992,2.375,2.390625,277600,2.390625,2.375,1.8949031829833984
06-01-1992,2.3125,2.390625,528000,2.390625,2.328125,1.85750412940979
07-01-1992,2.140625,2.3125,584000,2.3125,2.140625,1.707905888557434
08-01-1992,2.109375,2.125,692800,2.203125,2.125,1.6954395771026611
09-01-1992,2.109375,2.125,348000,2.171875,2.171875,1.7328388690948486
10-01-1992,2.140625,2.15625,840800,2.234375,2.234375,1.7827048301696777
13-01-1992,2.234375,2.234375,456000,2.328125,2.296875,1.8325697183609009
14-01-1992,2.21875,2.296875,281600,2.3125,2.21875,1.770237922668457
15-01-1992,2.234375,2.234375,377600,2.296875,2.28125,1.820103406906128
16-01-1992,2.28125,2.28125,80800,2.328125,2.328125,1.85750412940979
17-01-1992,2.359375,2.359375,47200,2.421875,2.421875,1.932302713394165
20-01-1992,2.421875,2.421875,91200,2.53125,2.515625,2.007101058959961
21-01-1992,2.515625,2.53125,578400,2.546875,2.515625,2.007101058959961
22-01-1992,2.484375,2.515625,300000,2.515625,2.484375,1.982167363166809
23-01-1992,2.453125,2.46875,313600,2.5,2.453125,1.9572337865829468
24-01-1992,2.3125,2.453125,1104800,2.453125,2.3125,1.8450357913970947
27-01-1992,2.25,2.296875,292800,2.296875,2.265625,1.807637095451355
28-01-1992,2.1875,2.265625,2736800,2.265625,2.1875,1.7453044652938843
29-01-1992,2.15625,2.203125,463200,2.25,2.203125,1.7577718496322632
30-01-1992,2.140625,2.140625,405600,2.21875,2.1875,1.7453044652938843
31-01-1992,2.1875,2.203125,714400,2.296875,2.25,1.7951710224151611
03-02-1992,2.21875,2.265625,96800,2.265625,2.234375,1.7827048301696777
04-02-1992,2.1875,2.21875,355200,2.234375,2.203125,1.7577718496322632
05-02-1992,2.15625,2.203125,604000,2.203125,2.171875,1.7328388690948486
06-02-1992,2.09375,2.1875,492800,2.1875,2.09375,1.6705063581466675
07-02-1992,2.078125,2.078125,704000,2.21875,2.21875,1.770237922668457
10-02-1992,2.234375,2.234375,782400,2.34375,2.328125,1.85750412940979
11-02-1992,2.3125,2.328125,241600,2.34375,2.3125,1.8450357913970947
12-02-1992,2.28125,2.3125,446400,2.328125,2.3125,1.8450357913970947
13-02-1992,2.296875,2.3125,161600,2.3125,2.296875,1.8325697183609009
14-02-1992,2.28125,2.296875,190400,2.328125,2.328125,1.85750412940979
18-02-1992,2.28125,2.3125,504800,2.3125,2.296875,1.8325697183609009
19-02-1992,2.265625,2.28125,20800,2.28125,2.265625,1.807637095451355
20-02-1992,2.265625,2.265625,260800,2.296875,2.296875,1.8325697183609009
21-02-1992,2.296875,2.296875,311200,2.328125,2.3125,1.8450357913970947
24-02-1992,2.3125,2.328125,249600,2.34375,2.3125,1.8450357913970947
25-02-1992,2.28125,2.3125,144000,2.3125,2.28125,1.820103406906128
26-02-1992,2.25,2.265625,835200,2.265625,2.265625,1.807637095451355
27-02-1992,2.25,2.25,67200,2.296875,2.265625,1.807637095451355
28-02-1992,2.234375,2.234375,321600,2.265625,2.234375,1.7827048301696777
02-03-1992,2.25,2.25,588800,2.296875,2.25,1.7951710224151611
03-03-1992,2.25,2.265625,608800,2.28125,2.25,1.7951710224151611
04-03-1992,2.234375,2.234375,488000,2.25,2.25,1.7951710224151611
05-03-1992,2.265625,2.265625,607200,2.28125,2.28125,1.820103406906128
06-03-1992,2.28125,2.28125,404800,2.296875,2.28125,1.820103406906128
09-03-1992,2.28125,2.28125,348000,2.328125,2.328125,1.85750412940979
10-03-1992,2.328125,2.328125,348000,2.40625,2.390625,1.9073690176010132
11-03-1992,2.390625,2.40625,376000,2.40625,2.40625,1.919836163520813
12-03-1992,2.40625,2.4375,347200,2.4375,2.40625,1.919836163520813
13-03-1992,2.421875,2.4375,138400,2.46875,2.46875,1.9697015285491943
16-03-1992,2.40625,2.5,122400,2.5,2.40625,1.919836163520813
17-03-1992,2.421875,2.4375,569600,2.4375,2.4375,1.9447678327560425
18-03-1992,2.40625,2.421875,46400,2.421875,2.40625,1.919836163520813
19-03-1992,2.375,2.4375,394400,2.4375,2.40625,1.919836163520813
20-03-1992,2.453125,2.46875,232000,2.484375,2.46875,1.9697015285491943
23-03-1992,2.5,2.5,545600,2.546875,2.5,1.9946345090866089
24-03-1992,2.5,2.5,618400,2.578125,2.5625,2.044499635696411
25-03-1992,2.5625,2.578125,116800,2.578125,2.578125,2.0569663047790527
26-03-1992,2.609375,2.609375,959200,2.734375,2.6875,2.1442317962646484
27-03-1992,2.609375,2.625,236800,2.65625,2.625,2.0943663120269775
30-03-1992,2.609375,2.625,324800,2.625,2.625,2.0943663120269775
31-03-1992,2.640625,2.640625,307200,2.65625,2.65625,2.119298219680786
01-04-1992,2.609375,2.65625,172800,2.65625,2.609375,2.081900119781494
02-04-1992,2.578125,2.609375,878400,2.609375,2.59375,2.06943416595459
03-04-1992,2.546875,2.5625,109600,2.5625,2.5625,2.044499635696411
06-04-1992,2.578125,2.578125,336000,2.734375,2.734375,2.1816327571868896
07-04-1992,2.6875,2.734375,612000,2.734375,2.6875,2.1442317962646484
08-04-1992,2.625,2.671875,771200,2.671875,2.625,2.0943663120269775
09-04-1992,2.609375,2.609375,170400,2.75,2.75,2.1993353366851807
10-04-1992,2.734375,2.734375,213600,2.75,2.734375,2.186837673187256
13-04-1992,2.75,2.765625,141600,2.78125,2.765625,2.21182918548584
14-04-1992,2.78125,2.78125,228000,2.8125,2.8125,2.2493205070495605
15-04-1992,2.8125,2.8125,312000,2.828125,2.828125,2.2618157863616943
16-04-1992,2.8125,2.8125,39200,2.828125,2.8125,2.2493205070495605
20-04-1992,2.8125,2.8125,245600,2.890625,2.890625,2.3117995262145996
21-04-1992,2.875,2.921875,337600,2.921875,2.90625,2.324296474456787
22-04-1992,2.875,2.890625,8800,2.890625,2.875,2.2993030548095703
23-04-1992,2.84375,2.875,1366400,2.984375,2.875,2.2993030548095703
24-04-1992,3.0,3.03125,687200,3.171875,3.0,2.3992741107940674
27-04-1992,3.03125,3.0625,511200,3.09375,3.046875,2.436763286590576
28-04-1992,3.015625,3.046875,234400,3.046875,3.03125,2.4242665767669678
29-04-1992,3.03125,3.046875,237600,3.046875,3.03125,2.4242665767669678
30-04-1992,3.03125,3.046875,1008800,3.0625,3.046875,2.436763286590576
01-05-1992,3.03125,3.03125,146400,3.046875,3.046875,2.436763286590576
04-05-1992,3.0625,3.0625,251200,3.078125,3.0625,2.449258327484131
05-05-1992,3.046875,3.046875,532000,3.078125,3.078125,2.46175479888916
06-05-1992,3.015625,3.078125,792800,3.078125,3.015625,2.4117698669433594
07-05-1992,2.96875,3.015625,61600,3.015625,2.96875,2.3742806911468506
08-05-1992,2.9375,3.0,42400,3.0,2.953125,2.361783742904663
11-05-1992,2.90625,2.953125,91200,2.953125,2.90625,2.324296474456787
12-05-1992,2.75,2.921875,1191200,2.921875,2.796875,2.2368216514587402
13-05-1992,2.765625,2.796875,261600,2.796875,2.765625,2.21182918548584
14-05-1992,2.6875,2.765625,1236800,2.84375,2.84375,2.2743120193481445
15-05-1992,2.8125,2.828125,509600,2.90625,2.890625,2.3117995262145996
18-05-1992,2.90625,2.90625,431200,3.015625,3.0,2.3992741107940674
19-05-1992,2.953125,3.0,572000,3.046875,3.046875,2.436763286590576
20-05-1992,3.0625,3.0625,200800,3.09375,3.09375,2.4742510318756104
21-05-1992,3.078125,3.078125,946400,3.15625,3.09375,2.4742510318756104
22-05-1992,3.078125,3.09375,230400,3.15625,3.140625,2.511739492416382
26-05-1992,3.125,3.140625,1300800,3.1875,3.1875,2.5492284297943115
27-05-1992,3.125,3.203125,1122400,3.25,3.125,2.4992446899414062
28-05-1992,3.078125,3.140625,627200,3.140625,3.125,2.4992446899414062
29-05-1992,3.078125,3.125,368800,3.125,3.09375,2.4742510318756104
01-06-1992,3.078125,3.078125,348800,3.171875,3.171875,2.536731243133545
02-06-1992,3.125,3.140625,108000,3.15625,3.140625,2.511739492416382
03-06-1992,3.125,3.15625,1278400,3.1875,3.15625,2.5242362022399902
04-06-1992,3.125,3.125,1169600,3.140625,3.140625,2.511739492416382
05-06-1992,3.140625,3.15625,816800,3.1875,3.1875,2.5492284297943115
08-06-1992,3.21875,3.21875,1822400,3.375,3.3125,2.6491971015930176
09-06-1992,3.28125,3.3125,2077600,3.34375,3.3125,2.6491971015930176
10-06-1992,3.21875,3.3125,778400,3.3125,3.28125,2.62420654296875
11-06-1992,3.28125,3.28125,438400,3.40625,3.40625,2.724175453186035
12-06-1992,3.34375,3.375,2042400,3.375,3.34375,2.674189805984497
15-06-1992,3.296875,3.328125,2438400,3.328125,3.3125,2.6491971015930176
16-06-1992,3.296875,3.328125,660800,3.328125,3.296875,2.6367032527923584
17-06-1992,3.21875,3.3125,673600,3.3125,3.234375,2.5867180824279785
18-06-1992,3.21875,3.21875,948800,3.265625,3.234375,2.5867180824279785
19-06-1992,3.234375,3.25,417600,3.265625,3.234375,2.5867180824279785
22-06-1992,3.203125,3.203125,568000,3.21875,3.203125,2.561723470687866
23-06-1992,3.203125,3.203125,518400,3.21875,3.203125,2.561723470687866
24-06-1992,3.171875,3.21875,224000,3.21875,3.21875,2.5742220878601074
25-06-1992,3.125,3.21875,307200,3.21875,3.125,2.4992446899414062
26-06-1992,3.109375,3.125,629600,3.140625,3.140625,2.511739492416382
29-06-1992,3.125,3.125,1169600,3.1875,3.171875,2.536731243133545
30-06-1992,3.15625,3.1875,1156800,3.1875,3.1875,2.5492284297943115
01-07-1992,3.203125,3.21875,694400,3.25,3.25,2.599212884902954
02-07-1992,3.25,3.28125,2007200,3.296875,3.28125,2.62420654296875
06-07-1992,3.296875,3.3125,771200,3.328125,3.3125,2.6491971015930176
07-07-1992,3.3125,3.3125,655200,3.359375,3.328125,2.661694288253784
08-07-1992,3.3125,3.328125,480800,3.34375,3.328125,2.661694288253784
09-07-1992,3.328125,3.34375,424000,3.375,3.359375,2.6917412281036377
10-07-1992,3.328125,3.390625,568800,3.390625,3.328125,2.666701555252075
13-07-1992,3.328125,3.328125,624800,3.359375,3.359375,2.6917412281036377
14-07-1992,3.390625,3.390625,627200,3.625,3.578125,2.867017984390259
15-07-1992,3.515625,3.59375,465600,3.609375,3.53125,2.829458475112915
16-07-1992,3.390625,3.5,143200,3.5,3.421875,2.741820812225342
17-07-1992,3.421875,3.4375,45600,3.453125,3.4375,2.754340887069702
20-07-1992,3.390625,3.4375,645600,3.453125,3.390625,2.7167809009552
21-07-1992,3.390625,3.390625,224000,3.421875,3.40625,2.729302167892456
22-07-1992,3.40625,3.40625,235200,3.484375,3.484375,2.7918975353240967
23-07-1992,3.46875,3.5,112000,3.515625,3.5,2.8044190406799316
24-07-1992,3.5,3.5,329600,3.609375,3.609375,2.8920583724975586
27-07-1992,3.5625,3.609375,66400,3.609375,3.59375,2.879537343978882
28-07-1992,3.53125,3.59375,91200,3.59375,3.5625,2.854497194290161
29-07-1992,3.546875,3.5625,84800,3.578125,3.578125,2.867017984390259
30-07-1992,3.5625,3.5625,565600,3.640625,3.640625,2.9170968532562256
31-07-1992,3.625,3.640625,500800,3.65625,3.640625,2.9170968532562256
03-08-1992,3.625,3.625,492000,3.703125,3.703125,2.9671757221221924
04-08-1992,3.6875,3.6875,398400,3.71875,3.71875,2.9796946048736572
05-08-1992,3.375,3.59375,268800,3.59375,3.40625,2.729302167892456
06-08-1992,3.171875,3.25,1166400,3.265625,3.25,2.6041035652160645
07-08-1992,3.25,3.25,996000,3.515625,3.515625,2.8169400691986084
10-08-1992,3.5,3.515625,88000,3.5625,3.546875,2.8419783115386963
11-08-1992,3.546875,3.546875,2608000,3.5625,3.546875,2.8419783115386963
12-08-1992,3.5625,3.5625,92800,3.59375,3.59375,2.879537343978882
13-08-1992,3.609375,3.625,684800,3.734375,3.734375,2.992215394973755
14-08-1992,3.734375,3.78125,1344000,3.84375,3.75,3.0047359466552734
17-08-1992,3.671875,3.71875,1498400,3.71875,3.6875,2.9546566009521484
18-08-1992,3.578125,3.671875,823200,3.6875,3.59375,2.879537343978882
19-08-1992,3.5,3.5,844800,3.6875,3.5625,2.854497194290161
20-08-1992,3.5625,3.625,7611200,3.640625,3.59375,2.879537343978882
21-08-1992,3.59375,3.609375,1631200,3.640625,3.59375,2.879537343978882
24-08-1992,3.578125,3.578125,1412000,3.609375,3.578125,2.867017984390259
25-08-1992,3.578125,3.578125,1002400,3.71875,3.671875,2.942136287689209
26-08-1992,3.6875,3.6875,1988000,3.75,3.75,3.0047359466552734
27-08-1992,3.71875,3.734375,872800,3.796875,3.78125,3.0297749042510986
28-08-1992,3.8125,3.8125,1732800,3.9375,3.9375,3.1549715995788574
31-08-1992,3.84375,3.90625,1392800,3.984375,3.875,3.1048929691314697
01-09-1992,3.859375,3.875,740000,3.9375,3.90625,3.129931926727295
02-09-1992,3.875,3.9375,458400,3.953125,3.890625,3.117412567138672
03-09-1992,3.890625,3.90625,617600,3.921875,3.921875,3.142451763153076
04-09-1992,3.921875,3.921875,190400,3.96875,3.953125,3.1674914360046387
08-09-1992,3.953125,3.953125,1150400,4.09375,4.078125,3.267648458480835
09-09-1992,4.0625,4.078125,660000,4.09375,4.09375,3.280170202255249
10-09-1992,4.0625,4.09375,809600,4.109375,4.078125,3.267648458480835
11-09-1992,4.0625,4.078125,549600,4.109375,4.109375,3.292689800262451
14-09-1992,4.109375,4.140625,684000,4.171875,4.125,3.305208921432495
15-09-1992,4.109375,4.125,557600,4.140625,4.109375,3.292689800262451
16-09-1992,4.09375,4.109375,723200,4.171875,4.125,3.305208921432495
17-09-1992,4.125,4.125,565600,4.28125,4.21875,3.3803277015686035
18-09-1992,4.1875,4.1875,668000,4.3125,4.3125,3.455444574356079
21-09-1992,4.328125,4.328125,808000,4.34375,4.34375,3.480485200881958
22-09-1992,4.296875,4.3125,662400,4.375,4.359375,3.493004560470581
23-09-1992,4.359375,4.375,898400,4.46875,4.375,3.505526304244995
24-09-1992,4.390625,4.390625,1256800,4.484375,4.46875,3.5806429386138916
25-09-1992,4.203125,4.421875,1837600,4.4375,4.25,3.405366897583008
28-09-1992,4.109375,4.25,1749600,4.25,4.125,3.305208921432495
29-09-1992,4.171875,4.203125,276800,4.234375,4.234375,3.392848491668701
30-09-1992,4.15625,4.21875,330400,4.234375,4.15625,3.330246686935425
01-10-1992,4.03125,4.140625,378400,4.140625,4.03125,3.230090618133545
02-10-1992,4.015625,4.046875,772800,4.078125,4.046875,3.242609977722168
05-10-1992,3.953125,4.046875,312000,4.046875,3.96875,3.1800107955932617
06-10-1992,3.90625,3.96875,885600,3.96875,3.9375,3.1549715995788574
07-10-1992,3.953125,3.953125,649600,4.015625,3.984375,3.192530632019043
08-10-1992,3.96875,3.96875,266400,4.0625,4.0,3.2100870609283447
09-10-1992,3.90625,3.96875,112000,4.03125,3.9375,3.1599292755126953
12-10-1992,3.9375,3.9375,351200,3.953125,3.953125,3.172468662261963
13-10-1992,3.890625,3.9375,412000,3.953125,3.9375,3.1599292755126953
14-10-1992,3.921875,3.9375,341600,3.953125,3.9375,3.1599292755126953
15-10-1992,3.90625,3.9375,205600,3.9375,3.90625,3.1348490715026855
16-10-1992,3.921875,3.921875,1151200,4.078125,4.0625,3.260241746902466
19-10-1992,4.0625,4.0625,756000,4.3125,4.28125,3.4357950687408447
20-10-1992,4.203125,4.265625,209600,4.265625,4.21875,3.385637044906616
21-10-1992,4.140625,4.203125,104800,4.203125,4.15625,3.335479736328125
22-10-1992,3.953125,4.140625,365600,4.140625,3.953125,3.172468662261963
23-10-1992,3.9375,3.96875,101600,3.96875,3.953125,3.172468662261963
26-10-1992,3.953125,3.953125,396800,4.015625,4.0,3.2100870609283447
27-10-1992,3.8125,3.984375,318400,3.984375,3.859375,3.0972321033477783
28-10-1992,3.71875,3.859375,920800,3.859375,3.828125,3.0721523761749268
29-10-1992,3.828125,3.828125,348000,3.90625,3.84375,3.0846924781799316
30-10-1992,3.8125,3.875,143200,3.875,3.8125,3.0596137046813965
02-11-1992,3.828125,3.828125,156800,3.875,3.875,3.109771728515625
03-11-1992,3.75,3.875,296800,3.875,3.75,3.0094571113586426
04-11-1992,3.65625,3.765625,464000,3.78125,3.65625,2.9342188835144043
05-11-1992,3.46875,3.625,1245600,3.625,3.484375,2.7962841987609863
06-11-1992,3.53125,3.53125,1823200,3.671875,3.65625,2.9342188835144043
09-11-1992,3.5,3.625,1322400,3.65625,3.546875,2.8464434146881104
10-11-1992,3.5625,3.5625,1669600,3.625,3.625,2.909139394760132
11-11-1992,3.5625,3.625,551200,3.625,3.5625,2.8589839935302734
12-11-1992,3.5625,3.625,1320800,3.640625,3.578125,2.8715217113494873
13-11-1992,3.59375,3.609375,324000,3.640625,3.625,2.909139394760132
16-11-1992,3.609375,3.609375,257600,3.65625,3.65625,2.9342188835144043
17-11-1992,3.625,3.625,304000,3.640625,3.625,2.909139394760132
18-11-1992,3.625,3.625,693600,3.640625,3.640625,2.9216811656951904
19-11-1992,3.46875,3.609375,821600,3.640625,3.5,2.8088245391845703
20-11-1992,3.53125,3.53125,536800,3.59375,3.59375,2.884063243865967
23-11-1992,3.5625,3.5625,660000,3.671875,3.625,2.909139394760132
24-11-1992,3.578125,3.609375,503200,3.609375,3.59375,2.884063243865967
25-11-1992,3.578125,3.578125,96000,3.609375,3.59375,2.884063243865967
27-11-1992,3.578125,3.59375,230400,3.625,3.625,2.909139394760132
30-11-1992,3.53125,3.625,539200,3.625,3.546875,2.8464434146881104
01-12-1992,3.53125,3.546875,1116800,3.546875,3.53125,2.8339037895202637
02-12-1992,3.53125,3.53125,721600,3.578125,3.578125,2.8715217113494873
03-12-1992,3.421875,3.5625,1191200,3.5625,3.4375,2.758667469024658
04-12-1992,3.421875,3.4375,1249600,3.5,3.5,2.8088245391845703
07-12-1992,3.484375,3.484375,167200,3.546875,3.5,2.8088245391845703
08-12-1992,3.453125,3.5,580000,3.515625,3.484375,2.7962841987609863
09-12-1992,3.484375,3.5,374400,3.546875,3.53125,2.8339037895202637
10-12-1992,3.484375,3.546875,1601600,3.609375,3.609375,2.896601438522339
11-12-1992,3.65625,3.65625,151200,3.703125,3.671875,2.9467575550079346
14-12-1992,3.609375,3.671875,920000,3.671875,3.65625,2.9342188835144043
15-12-1992,3.609375,3.640625,406400,3.640625,3.625,2.909139394760132
16-12-1992,3.59375,3.609375,402400,3.625,3.59375,2.884063243865967
17-12-1992,3.5625,3.609375,52800,3.609375,3.5625,2.8589839935302734
18-12-1992,3.578125,3.59375,295200,3.59375,3.59375,2.884063243865967
21-12-1992,3.546875,3.578125,488000,3.578125,3.546875,2.8464434146881104
22-12-1992,3.53125,3.5625,960800,3.5625,3.546875,2.8464434146881104
23-12-1992,3.515625,3.546875,1008000,3.546875,3.515625,2.8213651180267334
24-12-1992,3.53125,3.546875,655200,3.59375,3.59375,2.884063243865967
28-12-1992,3.53125,3.578125,97600,3.578125,3.546875,2.8464434146881104
29-12-1992,3.53125,3.546875,596000,3.59375,3.5625,2.8589839935302734
30-12-1992,3.546875,3.578125,639200,3.578125,3.546875,2.8464434146881104
31-12-1992,3.5625,3.5625,376000,3.6875,3.671875,2.9467575550079346
04-01-1993,3.609375,3.6875,597600,3.71875,3.609375,2.896601438522339
05-01-1993,3.578125,3.609375,715200,3.6875,3.6875,2.9592978954315186
06-01-1993,3.59375,3.6875,928800,3.6875,3.609375,2.896601438522339
07-01-1993,3.5625,3.609375,333600,3.609375,3.578125,2.8715217113494873
08-01-1993,3.46875,3.578125,1617600,3.578125,3.46875,2.783747434616089
11-01-1993,3.375,3.484375,410400,3.484375,3.390625,2.7269461154937744
12-01-1993,3.359375,3.390625,269600,3.40625,3.40625,2.7395129203796387
13-01-1993,3.359375,3.40625,826400,3.484375,3.46875,2.7897789478302
14-01-1993,3.34375,3.4375,619200,3.453125,3.34375,2.6892449855804443
15-01-1993,3.359375,3.375,1232800,3.421875,3.390625,2.7269461154937744
18-01-1993,3.359375,3.390625,460000,3.390625,3.375,2.7143800258636475
19-01-1993,3.359375,3.359375,1157600,3.484375,3.453125,2.7772114276885986
20-01-1993,3.4375,3.453125,132800,3.484375,3.46875,2.7897789478302
21-01-1993,3.4375,3.4375,272800,3.5,3.5,2.814911127090454
22-01-1993,3.5,3.515625,540800,3.59375,3.59375,2.8903117179870605
25-01-1993,3.578125,3.578125,969600,3.703125,3.6875,2.965710401535034
26-01-1993,3.78125,3.8125,1224000,3.875,3.78125,3.041109800338745
27-01-1993,3.703125,3.734375,636000,3.765625,3.75,3.0159783363342285
28-01-1993,3.75,3.765625,773600,3.90625,3.90625,3.141641139984131
29-01-1993,3.890625,3.90625,492800,4.0,3.96875,3.1919095516204834
01-02-1993,4.0,4.0,1876800,4.078125,4.0625,3.267306327819824
02-02-1993,4.046875,4.046875,1044000,4.09375,4.09375,3.292440414428711
03-02-1993,4.09375,4.09375,1448000,4.359375,4.296875,3.455806255340576
04-02-1993,4.328125,4.328125,1330400,4.4375,4.4375,3.568906307220459
05-02-1993,4.4375,4.4375,1606400,4.515625,4.5,3.6191720962524414
08-02-1993,4.46875,4.5,1975200,4.5,4.5,3.6191720962524414
09-02-1993,4.40625,4.5,756000,4.5,4.421875,3.556339979171753
10-02-1993,4.359375,4.421875,800000,4.453125,4.375,3.5186400413513184
11-02-1993,4.359375,4.359375,971200,4.5,4.484375,3.6066062450408936
12-02-1993,4.46875,4.484375,932000,4.484375,4.484375,3.6066062450408936
16-02-1993,4.34375,4.46875,292800,4.46875,4.34375,3.493506669998169
17-02-1993,4.34375,4.359375,632800,4.40625,4.390625,3.53120756149292
18-02-1993,4.421875,4.421875,604800,4.484375,4.4375,3.568906307220459
19-02-1993,4.421875,4.4375,3408800,4.515625,4.5,3.6191720962524414
22-02-1993,4.5,4.5,1140000,4.609375,4.5625,3.6694390773773193
23-02-1993,4.5,4.59375,664000,4.59375,4.546875,3.6568715572357178
24-02-1993,4.46875,4.515625,499200,4.515625,4.484375,3.6066062450408936
25-02-1993,4.359375,4.484375,259200,4.484375,4.359375,3.506073474884033
26-02-1993,4.359375,4.390625,128000,4.421875,4.40625,3.543771505355835
01-03-1993,4.421875,4.4375,1396000,4.53125,4.4375,3.568906307220459
02-03-1993,4.4375,4.46875,332800,4.484375,4.453125,3.5814719200134277
03-03-1993,4.46875,4.46875,4088800,4.84375,4.78125,3.845367908477783
04-03-1993,4.640625,4.75,913600,4.78125,4.734375,3.8076694011688232
05-03-1993,4.6875,4.71875,335200,4.734375,4.6875,3.769969940185547
08-03-1993,4.703125,4.703125,472000,4.796875,4.78125,3.845367908477783
09-03-1993,4.75,4.796875,324000,4.796875,4.78125,3.845367908477783
10-03-1993,4.734375,4.78125,199200,4.8125,4.8125,3.8705012798309326
11-03-1993,4.796875,4.8125,213600,4.921875,4.890625,3.9333372116088867
12-03-1993,4.796875,4.921875,702400,4.921875,4.84375,3.8956377506256104
15-03-1993,4.84375,4.84375,209600,4.875,4.875,3.9207675457000732
16-03-1993,4.84375,4.859375,316800,4.875,4.859375,3.9082040786743164
17-03-1993,4.859375,4.875,136800,4.984375,4.984375,4.008735179901123
18-03-1993,4.921875,4.96875,444000,5.0,5.0,4.021301746368408
19-03-1993,4.96875,4.984375,300800,5.0,4.96875,3.996166467666626
22-03-1993,4.96875,4.984375,640800,5.0,4.984375,4.008735179901123
23-03-1993,4.96875,5.015625,100800,5.015625,4.96875,3.996166467666626
24-03-1993,4.96875,4.96875,574400,5.078125,4.96875,3.996166467666626
25-03-1993,4.84375,4.90625,1020000,4.921875,4.84375,3.8956377506256104
26-03-1993,4.8125,4.84375,753600,4.921875,4.90625,3.9459033012390137
29-03-1993,4.921875,4.921875,589600,4.984375,4.984375,4.008735179901123
30-03-1993,5.0,5.0,663200,5.03125,5.03125,4.046433448791504
31-03-1993,4.96875,5.03125,558400,5.03125,5.015625,4.033868789672852
01-04-1993,4.984375,5.03125,537600,5.03125,5.0,4.021301746368408
02-04-1993,4.859375,4.953125,240800,4.953125,4.890625,3.9333372116088867
05-04-1993,4.875,4.90625,292800,4.90625,4.90625,3.9459033012390137
06-04-1993,4.875,4.90625,604800,4.90625,4.875,3.9207675457000732
07-04-1993,4.8125,4.84375,860000,4.875,4.875,3.9207675457000732
08-04-1993,4.859375,4.859375,24000,4.875,4.875,3.9268081188201904
12-04-1993,4.859375,4.859375,325600,4.96875,4.96875,4.002324104309082
13-04-1993,4.84375,4.96875,1076800,5.03125,4.875,3.9268081188201904
14-04-1993,4.84375,4.890625,447200,4.890625,4.84375,3.9016408920288086
15-04-1993,4.8125,4.875,231200,4.921875,4.8125,3.8764660358428955
16-04-1993,4.796875,4.828125,356800,4.84375,4.84375,3.9016408920288086
19-04-1993,4.828125,4.828125,173600,4.890625,4.875,3.9268081188201904
20-04-1993,4.90625,4.90625,1133600,5.0625,4.984375,4.0149126052856445
21-04-1993,4.875,5.015625,185600,5.015625,4.875,3.9268081188201904
22-04-1993,4.671875,4.84375,335200,4.84375,4.671875,3.763193368911743
23-04-1993,4.46875,4.671875,786400,4.671875,4.5,3.624748706817627
26-04-1993,4.515625,4.53125,367200,4.640625,4.625,3.7254366874694824
27-04-1993,4.625,4.65625,108000,4.65625,4.640625,3.7380223274230957
28-04-1993,4.625,4.625,189600,4.640625,4.640625,3.7380223274230957
29-04-1993,4.625,4.65625,383200,4.75,4.75,3.826122999191284
30-04-1993,4.75,4.75,779200,4.96875,4.921875,3.964567184448242
03-05-1993,4.953125,4.953125,249600,4.984375,4.953125,3.989741325378418
04-05-1993,4.90625,4.921875,1332800,4.953125,4.921875,3.964567184448242
05-05-1993,4.921875,4.921875,65600,4.9375,4.921875,3.964567184448242
06-05-1993,4.921875,4.921875,664800,5.0,4.9375,3.977154493331909
07-05-1993,4.90625,4.921875,186400,4.96875,4.921875,3.964567184448242
10-05-1993,4.8125,4.9375,828000,4.9375,4.8125,3.8764660358428955
11-05-1993,4.78125,4.78125,1120800,4.953125,4.9375,3.977154493331909
12-05-1993,4.90625,4.9375,852000,4.984375,4.953125,3.989741325378418
13-05-1993,4.90625,4.90625,702400,5.09375,5.0625,4.077839374542236
14-05-1993,5.0625,5.0625,931200,5.265625,5.171875,4.165943145751953
17-05-1993,5.15625,5.171875,390400,5.203125,5.203125,4.191115379333496
18-05-1993,5.203125,5.203125,340800,5.328125,5.296875,4.266632556915283
19-05-1993,5.1875,5.3125,412800,5.3125,5.234375,4.216285705566406
20-05-1993,5.21875,5.21875,216000,5.25,5.234375,4.216285705566406
21-05-1993,5.203125,5.234375,400000,5.234375,5.21875,4.203701019287109
24-05-1993,5.21875,5.25,496000,5.25,5.234375,4.216285705566406
25-05-1993,5.171875,5.1875,400800,5.25,5.1875,4.178531169891357
26-05-1993,5.15625,5.1875,188000,5.203125,5.203125,4.191115379333496
27-05-1993,5.203125,5.203125,511200,5.3125,5.3125,4.27921724319458
28-05-1993,5.28125,5.296875,473600,5.3125,5.3125,4.27921724319458
01-06-1993,5.328125,5.34375,619200,5.4375,5.40625,4.354732990264893
02-06-1993,5.40625,5.40625,522400,5.625,5.5625,4.480589389801025
03-06-1993,5.484375,5.5625,403200,5.5625,5.515625,4.4428324699401855
04-06-1993,5.484375,5.5,889600,5.515625,5.5,4.430248260498047
07-06-1993,5.484375,5.5,482400,5.515625,5.5,4.430248260498047
08-06-1993,5.421875,5.484375,277600,5.484375,5.4375,4.379904270172119
09-06-1993,5.40625,5.40625,262400,5.5,5.5,4.430248260498047
10-06-1993,5.4375,5.484375,779200,5.484375,5.4375,4.379904270172119
11-06-1993,5.234375,5.40625,606400,5.40625,5.234375,4.216285705566406
14-06-1993,5.125,5.21875,763200,5.21875,5.125,4.128185749053955
15-06-1993,5.125,5.125,288800,5.15625,5.125,4.128185749053955
16-06-1993,5.140625,5.140625,219200,5.203125,5.203125,4.191115379333496
17-06-1993,5.21875,5.21875,193600,5.328125,5.25,4.228873252868652
18-06-1993,5.265625,5.28125,224800,5.296875,5.265625,4.241458892822266
21-06-1993,5.28125,5.28125,292800,5.359375,5.34375,4.304388999938965
22-06-1993,5.265625,5.34375,1112000,5.34375,5.265625,4.241458892822266
23-06-1993,5.265625,5.265625,2466400,5.296875,5.296875,4.266632556915283
24-06-1993,5.0625,5.296875,637600,5.296875,5.125,4.128185749053955
25-06-1993,5.109375,5.125,36000,5.125,5.125,4.128185749053955
28-06-1993,5.125,5.125,204800,5.140625,5.140625,4.140772342681885
29-06-1993,4.984375,5.109375,648000,5.125,5.046875,4.0652570724487305
30-06-1993,5.03125,5.0625,552000,5.09375,5.09375,4.103013038635254
01-07-1993,5.015625,5.078125,376800,5.078125,5.046875,4.0652570724487305
02-07-1993,5.015625,5.0625,100000,5.0625,5.046875,4.0652570724487305
06-07-1993,5.0,5.046875,437600,5.09375,5.0,4.027496337890625
07-07-1993,4.96875,4.96875,1369600,5.078125,5.078125,4.090429306030273
08-07-1993,5.078125,5.078125,955200,5.1875,5.1875,4.178531169891357
09-07-1993,5.171875,5.171875,1352000,5.25,5.25,4.234996795654297
12-07-1993,5.28125,5.28125,900000,5.34375,5.3125,4.2854132652282715
13-07-1993,5.28125,5.3125,100000,5.3125,5.28125,4.260204315185547
14-07-1993,5.28125,5.28125,538400,5.3125,5.28125,4.260204315185547
15-07-1993,5.21875,5.3125,338400,5.3125,5.25,4.234996795654297
16-07-1993,5.234375,5.25,147200,5.265625,5.25,4.234996795654297
19-07-1993,5.25,5.296875,417600,5.296875,5.28125,4.260204315185547
20-07-1993,5.25,5.25,713600,5.3125,5.3125,4.2854132652282715
21-07-1993,5.3125,5.3125,395200,5.34375,5.3125,4.2854132652282715
22-07-1993,5.28125,5.3125,314400,5.3125,5.296875,4.272805213928223
23-07-1993,5.25,5.296875,341600,5.3125,5.3125,4.2854132652282715
26-07-1993,5.296875,5.34375,196000,5.34375,5.296875,4.272805213928223
27-07-1993,5.21875,5.265625,191200,5.28125,5.25,4.234996795654297
28-07-1993,5.234375,5.25,356800,5.296875,5.265625,4.2475996017456055
29-07-1993,5.25,5.265625,98400,5.3125,5.296875,4.272805213928223
30-07-1993,5.3125,5.3125,57600,5.328125,5.328125,4.2980170249938965
02-08-1993,5.3125,5.328125,1029600,5.46875,5.46875,4.411454677581787
03-08-1993,5.484375,5.484375,356000,5.578125,5.5625,4.487080097198486
04-08-1993,5.546875,5.546875,400000,5.65625,5.625,4.537495136260986
05-08-1993,5.609375,5.609375,56000,5.640625,5.625,4.537495136260986
06-08-1993,5.578125,5.625,348800,5.625,5.59375,4.5122880935668945
09-08-1993,5.609375,5.609375,344800,5.6875,5.6875,4.587915420532227
10-08-1993,5.6875,5.6875,632800,5.75,5.75,4.638332843780518
11-08-1993,5.78125,5.78125,784800,6.0,6.0,4.839995861053467
12-08-1993,5.984375,6.0,1103200,6.21875,6.015625,4.852601051330566
13-08-1993,5.9375,6.03125,226400,6.03125,5.9375,4.789578914642334
16-08-1993,5.9375,5.9375,448000,5.984375,5.984375,4.827391624450684
17-08-1993,6.0625,6.0625,640000,6.25,6.25,5.041660308837891
18-08-1993,6.234375,6.234375,805600,6.484375,6.421875,5.1803083419799805
19-08-1993,6.3125,6.4375,424000,6.46875,6.3125,5.09207820892334
20-08-1993,6.3125,6.3125,914400,6.453125,6.453125,5.20551872253418
23-08-1993,6.453125,6.46875,964800,6.703125,6.703125,5.407181262969971
24-08-1993,6.53125,6.703125,704000,6.703125,6.5625,5.293745040893555
25-08-1993,6.4375,6.5625,753600,6.578125,6.453125,5.20551872253418
26-08-1993,6.25,6.453125,817600,6.453125,6.296875,5.079473972320557
27-08-1993,6.03125,6.28125,627200,6.28125,6.125,4.940828323364258
30-08-1993,6.109375,6.125,529600,6.25,6.21875,5.016454696655273
31-08-1993,6.171875,6.234375,888000,6.328125,6.28125,5.066869735717773
01-09-1993,6.28125,6.28125,388800,6.390625,6.375,5.142493724822998
02-09-1993,6.28125,6.375,286400,6.375,6.28125,5.066869735717773
03-09-1993,6.28125,6.28125,135200,6.328125,6.296875,5.079473972320557
07-09-1993,6.125,6.296875,236800,6.328125,6.125,4.940828323364258
08-09-1993,5.953125,6.125,388800,6.125,5.953125,4.802180290222168
09-09-1993,5.921875,5.953125,533600,5.984375,5.96875,4.814786434173584
10-09-1993,5.953125,5.96875,121600,5.984375,5.984375,4.827391624450684
13-09-1993,5.921875,5.984375,472800,6.03125,5.921875,4.776975631713867
14-09-1993,5.90625,5.953125,633600,5.96875,5.9375,4.789578914642334
15-09-1993,5.921875,5.9375,994400,6.046875,6.0,4.839995861053467
16-09-1993,6.0,6.0,152800,6.03125,6.0,4.839995861053467
17-09-1993,5.890625,5.96875,127200,5.96875,5.9375,4.789578914642334
20-09-1993,5.9375,5.9375,248000,5.96875,5.96875,4.814786434173584
21-09-1993,5.96875,5.96875,218400,6.03125,6.015625,4.852601051330566
22-09-1993,5.96875,6.0,99200,6.03125,5.96875,4.814786434173584
23-09-1993,5.953125,5.984375,232800,5.984375,5.984375,4.827391624450684
24-09-1993,5.953125,5.96875,357600,6.0,5.96875,4.814786434173584
27-09-1993,5.953125,5.953125,441600,6.0,5.984375,4.827391624450684
28-09-1993,5.921875,5.984375,326400,5.984375,5.9375,4.789578914642334
29-09-1993,5.9375,5.9375,1200800,6.453125,6.453125,5.20551872253418
30-09-1993,6.453125,6.453125,755200,6.625,6.625,5.3441619873046875
01-10-1993,6.59375,6.59375,599200,6.71875,6.71875,5.419787406921387
04-10-1993,6.640625,6.71875,248000,6.75,6.640625,5.356768608093262
05-10-1993,6.578125,6.65625,122400,6.65625,6.578125,5.306347846984863
06-10-1993,6.5,6.578125,114400,6.578125,6.53125,5.268537998199463
07-10-1993,6.4375,6.5,224000,6.5,6.484375,5.2307233810424805
08-10-1993,6.40625,6.484375,245600,6.484375,6.421875,5.186306476593018
11-10-1993,6.25,6.421875,288000,6.421875,6.25,5.047497272491455
12-10-1993,6.125,6.25,272800,6.25,6.125,4.946549892425537
13-10-1993,5.96875,6.078125,826400,6.109375,5.984375,4.832982063293457
14-10-1993,6.0,6.09375,388000,6.125,6.03125,4.870837688446045
15-10-1993,5.828125,6.0,707200,6.0,5.875,4.744649410247803
18-10-1993,5.71875,5.875,719200,5.875,5.75,4.643702983856201
19-10-1993,5.484375,5.75,1467200,5.875,5.828125,4.706793785095215
20-10-1993,5.3125,5.796875,1626400,5.796875,5.3125,4.290376663208008
21-10-1993,5.4375,5.4375,3216000,5.6875,5.5,4.441798686981201
22-10-1993,5.375,5.5,928800,5.5,5.375,4.340851306915283
25-10-1993,5.28125,5.375,901600,5.421875,5.28125,4.26513671875
26-10-1993,5.0,5.28125,1536800,5.3125,5.03125,4.063236236572266
27-10-1993,5.0625,5.0625,1416000,5.1875,5.1875,4.189423561096191
28-10-1993,5.1875,5.1875,1215200,5.453125,5.453125,4.403943061828613
29-10-1993,5.328125,5.421875,412800,5.46875,5.34375,4.315613746643066
01-11-1993,5.34375,5.359375,379200,5.484375,5.453125,4.403943061828613
02-11-1993,5.453125,5.453125,553600,5.578125,5.5625,4.492275238037109
03-11-1993,5.578125,5.609375,540800,5.671875,5.625,4.542749404907227
04-11-1993,5.625,5.65625,345600,5.734375,5.625,4.542749404907227
05-11-1993,5.53125,5.625,112800,5.625,5.5625,4.492275238037109
08-11-1993,5.46875,5.5625,207200,5.5625,5.46875,4.416563987731934
09-11-1993,5.1875,5.46875,542400,5.46875,5.21875,4.214662551879883
10-11-1993,5.21875,5.25,191200,5.28125,5.265625,4.252518177032471
11-11-1993,5.203125,5.28125,564800,5.40625,5.21875,4.214662551879883
12-11-1993,5.0625,5.203125,1202400,5.203125,5.203125,4.202043056488037
15-11-1993,5.140625,5.203125,675200,5.234375,5.140625,4.15156888961792
16-11-1993,4.875,4.96875,827200,4.984375,4.9375,3.987525463104248
17-11-1993,4.9375,5.0,1617600,5.203125,5.203125,4.202043056488037
18-11-1993,5.15625,5.203125,463200,5.359375,5.296875,4.277753829956055
19-11-1993,5.21875,5.25,85600,5.265625,5.265625,4.252518177032471
22-11-1993,5.078125,5.25,173600,5.25,5.078125,4.1010942459106445
23-11-1993,5.078125,5.109375,697600,5.21875,5.09375,4.11371374130249
24-11-1993,5.109375,5.109375,556800,5.15625,5.15625,4.164187431335449
26-11-1993,5.03125,5.125,94400,5.125,5.03125,4.063236236572266
29-11-1993,4.828125,4.96875,1270400,4.96875,4.828125,3.8991920948028564
30-11-1993,4.78125,4.84375,457600,4.859375,4.828125,3.8991920948028564
01-12-1993,4.828125,4.859375,316000,4.921875,4.859375,3.924431562423706
02-12-1993,4.84375,4.84375,429600,4.90625,4.859375,3.924431562423706
03-12-1993,4.875,4.875,142400,4.90625,4.875,3.937049150466919
06-12-1993,4.84375,4.875,308800,4.90625,4.890625,3.949669599533081
07-12-1993,4.859375,4.875,528800,4.953125,4.90625,3.9622859954833984
08-12-1993,4.84375,4.890625,89600,4.890625,4.859375,3.924431562423706
09-12-1993,4.71875,4.859375,69600,4.859375,4.78125,3.8613381385803223
10-12-1993,4.796875,4.796875,271200,4.84375,4.828125,3.8991920948028564
13-12-1993,4.71875,4.859375,102400,4.859375,4.765625,3.8487184047698975
14-12-1993,4.734375,4.796875,620800,4.8125,4.8125,3.8865747451782227
15-12-1993,4.71875,4.765625,128000,4.765625,4.734375,3.823481559753418
16-12-1993,4.75,4.75,565600,4.84375,4.78125,3.8613381385803223
17-12-1993,4.734375,4.796875,200800,4.8125,4.75,3.8361001014709473
20-12-1993,4.40625,4.71875,927200,4.71875,4.515625,3.6468183994293213
21-12-1993,4.265625,4.546875,880000,4.546875,4.4375,3.583724021911621
22-12-1993,4.40625,4.453125,676000,4.75,4.734375,3.823481559753418
23-12-1993,4.703125,4.703125,176000,4.796875,4.75,3.8361001014709473
27-12-1993,4.6875,4.6875,1060000,4.890625,4.859375,3.924431562423706
28-12-1993,4.8125,4.890625,629600,4.921875,4.8125,3.8865747451782227
29-12-1993,4.828125,4.828125,648000,4.890625,4.859375,3.924431562423706
30-12-1993,4.828125,4.84375,270400,4.859375,4.859375,3.924431562423706
31-12-1993,4.828125,4.859375,112800,4.875,4.875,3.937049150466919
03-01-1994,4.828125,4.875,332000,4.875,4.875,3.937049150466919
04-01-1994,4.84375,4.84375,202400,4.890625,4.890625,3.949669599533081
05-01-1994,4.96875,4.96875,800000,5.25,5.203125,4.202043056488037
06-01-1994,5.234375,5.234375,999200,5.484375,5.453125,4.403943061828613
07-01-1994,5.40625,5.46875,704800,5.46875,5.4375,4.391324043273926
10-01-1994,5.421875,5.421875,573600,5.640625,5.640625,4.561662673950195
11-01-1994,5.453125,5.59375,1028800,5.59375,5.5,4.447936058044434
12-01-1994,5.390625,5.5,296000,5.53125,5.40625,4.372116565704346
13-01-1994,5.3125,5.40625,10779200,5.421875,5.3125,4.29630184173584
14-01-1994,5.15625,5.28125,1295200,5.328125,5.15625,4.169938087463379
17-01-1994,5.21875,5.25,1098400,5.3125,5.296875,4.283664226531982
18-01-1994,5.3125,5.3125,851200,5.4375,5.4375,4.397391319274902
19-01-1994,5.46875,5.46875,1249600,5.609375,5.515625,4.4605712890625
20-01-1994,5.359375,5.515625,487200,5.5625,5.359375,4.3342084884643555
21-01-1994,5.34375,5.390625,354400,5.421875,5.375,4.346847057342529
24-01-1994,5.3125,5.390625,408800,5.40625,5.3125,4.29630184173584
25-01-1994,5.296875,5.3125,284000,5.328125,5.3125,4.29630184173584
26-01-1994,5.265625,5.3125,873600,5.40625,5.375,4.346847057342529
27-01-1994,5.375,5.375,1322400,5.5625,5.546875,4.485844135284424
28-01-1994,5.484375,5.5,303200,5.515625,5.5,4.447936058044434
31-01-1994,5.515625,5.53125,787200,5.671875,5.515625,4.4605712890625
01-02-1994,5.546875,5.546875,700800,5.625,5.609375,4.5363898277282715
02-02-1994,5.578125,5.578125,999200,5.9375,5.765625,4.662750244140625
03-02-1994,5.734375,5.8125,155200,5.8125,5.75,4.650115013122559
04-02-1994,5.703125,5.78125,1171200,5.828125,5.71875,4.62484073638916
07-02-1994,5.609375,5.671875,363200,5.671875,5.625,4.549025058746338
08-02-1994,5.59375,5.625,355200,5.75,5.734375,4.637478828430176
09-02-1994,5.59375,5.734375,272800,5.734375,5.65625,4.574295520782471
10-02-1994,5.5,5.65625,944800,5.65625,5.5,4.447936058044434
11-02-1994,5.5,5.53125,212800,5.71875,5.6875,4.599570274353027
14-02-1994,5.40625,5.6875,335200,5.6875,5.5,4.447936058044434
15-02-1994,5.46875,5.46875,137600,5.53125,5.5,4.447936058044434
16-02-1994,5.375,5.46875,541600,5.484375,5.375,4.346847057342529
17-02-1994,5.34375,5.390625,538400,5.46875,5.34375,4.321573734283447
18-02-1994,5.328125,5.375,437600,5.390625,5.34375,4.321573734283447
22-02-1994,5.359375,5.375,83200,5.40625,5.375,4.346847057342529
23-02-1994,5.34375,5.34375,152000,5.4375,5.421875,4.384754657745361
24-02-1994,5.375,5.421875,108800,5.4375,5.4375,4.397391319274902
25-02-1994,5.46875,5.5,848800,5.5625,5.46875,4.422662734985352
28-02-1994,5.375,5.46875,57600,5.46875,5.375,4.346847057342529
01-03-1994,5.34375,5.40625,180000,5.40625,5.375,4.346847057342529
02-03-1994,5.28125,5.34375,310400,5.34375,5.3125,4.29630184173584
03-03-1994,5.296875,5.328125,92800,5.34375,5.3125,4.29630184173584
04-03-1994,5.296875,5.296875,196800,5.40625,5.390625,4.359483242034912
07-03-1994,5.34375,5.40625,268800,5.40625,5.34375,4.321573734283447
08-03-1994,5.234375,5.3125,516800,5.328125,5.234375,4.233121395111084
09-03-1994,4.96875,5.203125,609600,5.203125,5.03125,4.068849086761475
10-03-1994,4.921875,5.015625,894400,5.046875,4.9375,3.993032932281494
11-03-1994,4.921875,4.953125,410400,5.03125,5.015625,4.056212425231934
14-03-1994,5.015625,5.015625,308800,5.1875,5.171875,4.182571887969971
15-03-1994,5.21875,5.21875,446400,5.328125,5.28125,4.271025657653809
16-03-1994,5.25,5.265625,458400,5.296875,5.28125,4.271025657653809
17-03-1994,5.265625,5.265625,423200,5.515625,5.484375,4.43529748916626
18-03-1994,5.5,5.53125,879200,5.6875,5.6875,4.599570274353027
21-03-1994,5.671875,5.71875,813600,5.734375,5.71875,4.62484073638916
22-03-1994,5.6875,5.6875,1078400,5.8125,5.796875,4.688022136688232
23-03-1994,5.625,5.6875,722400,5.6875,5.671875,4.586933135986328
24-03-1994,5.5625,5.59375,674400,5.65625,5.625,4.549025058746338
25-03-1994,5.609375,5.609375,510400,5.671875,5.625,4.549025058746338
28-03-1994,5.4375,5.609375,1590400,5.609375,5.4375,4.397391319274902
29-03-1994,5.25,5.421875,617600,5.421875,5.25,4.245755672454834
30-03-1994,5.109375,5.234375,567200,5.328125,5.3125,4.29630184173584
31-03-1994,5.265625,5.3125,148800,5.34375,5.34375,4.321573734283447
04-04-1994,5.25,5.3125,445600,5.3125,5.265625,4.2583909034729
05-04-1994,5.234375,5.28125,940000,5.328125,5.25,4.245755672454834
06-04-1994,5.21875,5.3125,240000,5.375,5.375,4.346847057342529
07-04-1994,5.34375,5.375,574400,5.4375,5.34375,4.321573734283447
08-04-1994,5.3125,5.328125,169600,5.34375,5.34375,4.321573734283447
11-04-1994,5.265625,5.3125,698400,5.3125,5.296875,4.289683818817139
12-04-1994,5.3125,5.3125,1101600,5.40625,5.375,4.352956771850586
13-04-1994,5.359375,5.375,604000,5.4375,5.4375,4.403570175170898
14-04-1994,5.359375,5.390625,1280800,5.53125,5.53125,4.479494571685791
15-04-1994,5.46875,5.53125,826400,5.875,5.875,4.757882118225098
18-04-1994,5.6875,5.8125,1331200,5.8125,5.796875,4.694612503051758
19-04-1994,5.734375,5.78125,704000,5.8125,5.734375,4.643996238708496
20-04-1994,5.703125,5.71875,727200,5.71875,5.71875,4.63134241104126
21-04-1994,5.703125,5.703125,480000,5.765625,5.75,4.656650066375732
22-04-1994,5.71875,5.734375,332000,5.796875,5.765625,4.669304847717285
25-04-1994,5.734375,5.765625,498400,5.9375,5.9375,4.808497428894043
26-04-1994,5.9375,5.9375,1096000,5.96875,5.96875,4.833804607391357
28-04-1994,5.9375,5.953125,856800,6.015625,5.953125,4.82115364074707
29-04-1994,5.890625,5.9375,535200,5.9375,5.9375,4.808497428894043
02-05-1994,5.890625,5.90625,652000,5.953125,5.953125,4.82115364074707
03-05-1994,5.859375,5.9375,560800,5.9375,5.875,4.757882118225098
04-05-1994,5.875,5.875,358400,5.9375,5.9375,4.808497428894043
05-05-1994,5.921875,5.96875,66400,5.96875,5.921875,4.795842170715332
06-05-1994,5.921875,5.921875,343200,6.125,6.09375,4.935037136077881
09-05-1994,6.03125,6.109375,453600,6.109375,6.078125,4.9223833084106445
10-05-1994,6.09375,6.140625,632800,6.140625,6.09375,4.935037136077881
11-05-1994,6.03125,6.09375,187200,6.109375,6.03125,4.884420394897461
12-05-1994,6.03125,6.046875,806400,6.15625,6.140625,4.972998142242432
13-05-1994,6.109375,6.109375,257600,6.125,6.125,4.9603447914123535
16-05-1994,6.109375,6.140625,293600,6.140625,6.109375,4.947691440582275
17-05-1994,5.890625,6.09375,1044000,6.09375,5.953125,4.82115364074707
18-05-1994,5.90625,5.96875,1417600,5.984375,5.96875,4.833804607391357
19-05-1994,5.890625,5.984375,205600,5.984375,5.890625,4.770534515380859
20-05-1994,5.8125,5.90625,309600,5.90625,5.828125,4.719919204711914
23-05-1994,5.765625,5.796875,208800,5.8125,5.765625,4.669304847717285
24-05-1994,5.703125,5.75,287200,5.75,5.703125,4.618688583374023
25-05-1994,5.65625,5.71875,179200,5.71875,5.65625,4.580728054046631
26-05-1994,5.515625,5.59375,840800,5.625,5.546875,4.492149353027344
27-05-1994,5.53125,5.5625,70400,5.59375,5.578125,4.517457008361816
31-05-1994,5.5,5.546875,752800,5.578125,5.5,4.454187870025635
01-06-1994,5.5,5.5,480800,5.546875,5.515625,4.466838836669922
02-06-1994,5.46875,5.5,600000,5.53125,5.46875,4.42888069152832
03-06-1994,5.34375,5.453125,136800,5.453125,5.421875,4.3909173011779785
06-06-1994,5.453125,5.5,132800,5.5,5.46875,4.42888069152832
07-06-1994,5.46875,5.46875,863200,5.578125,5.5625,4.504802227020264
08-06-1994,5.4375,5.5625,276800,5.5625,5.46875,4.42888069152832
09-06-1994,5.375,5.4375,304800,5.4375,5.375,4.352956771850586
10-06-1994,5.375,5.375,165600,5.578125,5.578125,4.517457008361816
13-06-1994,5.578125,5.578125,736800,5.703125,5.6875,4.606031894683838
14-06-1994,5.703125,5.703125,476000,5.75,5.75,4.656650066375732
15-06-1994,5.71875,5.75,292000,5.78125,5.734375,4.643996238708496
16-06-1994,5.71875,5.71875,132000,5.78125,5.78125,4.681956768035889
17-06-1994,5.75,5.75,384000,5.90625,5.90625,4.783188819885254
20-06-1994,5.75,5.9375,174800,5.9375,5.84375,4.73257303237915
21-06-1994,5.78125,5.78125,166400,5.90625,5.90625,4.783188819885254
22-06-1994,5.875,5.96875,52800,5.96875,5.90625,4.783188819885254
23-06-1994,5.75,5.96875,197200,5.96875,5.75,4.656650066375732
24-06-1994,5.59375,5.75,143200,5.75,5.71875,4.63134241104126
27-06-1994,5.625,5.6875,136800,5.75,5.71875,4.63134241104126
28-06-1994,5.59375,5.65625,190800,5.71875,5.71875,4.63134241104126
29-06-1994,5.65625,5.71875,94800,5.75,5.75,4.656650066375732
30-06-1994,5.59375,5.6875,440400,5.75,5.75,4.656650066375732
01-07-1994,5.625,5.75,150400,5.75,5.65625,4.580728054046631
05-07-1994,5.5,5.6875,72400,5.6875,5.5,4.454187870025635
06-07-1994,5.46875,5.5,182800,5.6875,5.6875,4.606031894683838
07-07-1994,5.59375,5.71875,36000,5.71875,5.59375,4.5301103591918945
08-07-1994,5.5,5.5625,24000,5.59375,5.5,4.454187870025635
11-07-1994,5.5,5.53125,51600,5.5625,5.5625,4.510953426361084
12-07-1994,5.5,5.5625,98800,5.59375,5.5625,4.510953426361084
13-07-1994,5.40625,5.59375,277200,5.65625,5.5,4.460269927978516
14-07-1994,5.4375,5.53125,72800,5.53125,5.4375,4.4095845222473145
15-07-1994,5.34375,5.40625,68800,5.40625,5.375,4.3588972091674805
18-07-1994,5.3125,5.4375,261600,5.46875,5.46875,4.434925556182861
19-07-1994,5.375,5.4375,143200,5.4375,5.375,4.3588972091674805
20-07-1994,5.3125,5.40625,31600,5.40625,5.3125,4.308215618133545
21-07-1994,5.1875,5.1875,230800,5.34375,5.34375,4.33355712890625
22-07-1994,5.1875,5.3125,37600,5.3125,5.21875,4.232186317443848
25-07-1994,5.03125,5.25,187200,5.25,5.03125,4.080132484436035
26-07-1994,4.9375,5.0625,230000,5.0625,4.96875,4.029446125030518
27-07-1994,4.90625,5.0,551200,5.03125,4.9375,4.004105567932129
28-07-1994,4.9375,4.9375,342800,5.0,5.0,4.05479097366333
29-07-1994,4.96875,5.0,209600,5.0,4.96875,4.029446125030518
01-08-1994,4.9375,4.9375,620000,5.0,5.0,4.05479097366333
02-08-1994,4.9375,4.96875,216400,5.0,5.0,4.05479097366333
03-08-1994,4.90625,4.96875,430800,5.03125,5.0,4.05479097366333
04-08-1994,4.9375,4.96875,156400,5.0625,5.0,4.05479097366333
05-08-1994,4.78125,4.96875,233200,5.0,4.78125,3.877392530441284
08-08-1994,4.8125,4.84375,731600,4.90625,4.84375,3.9280788898468018
09-08-1994,4.78125,4.8125,1479200,5.0,5.0,4.05479097366333
10-08-1994,5.03125,5.0625,600000,5.125,5.0625,4.105474472045898
11-08-1994,4.96875,5.03125,326800,5.09375,4.96875,4.029446125030518
12-08-1994,4.9375,4.96875,558400,5.03125,5.0,4.05479097366333
15-08-1994,4.96875,5.0,71600,5.0625,4.96875,4.029446125030518
16-08-1994,4.9375,5.0,300800,5.0,4.9375,4.004105567932129
17-08-1994,4.90625,4.9375,148800,5.0,4.96875,4.029446125030518
18-08-1994,4.90625,4.96875,228400,4.96875,4.9375,4.004105567932129
19-08-1994,4.90625,4.9375,330400,4.953125,4.90625,3.9787628650665283
22-08-1994,4.8125,4.9375,137200,4.9375,4.8125,3.902733087539673
23-08-1994,4.78125,4.875,459200,4.90625,4.84375,3.9280788898468018
24-08-1994,4.875,4.875,956000,5.03125,4.9375,4.004105567932129
25-08-1994,4.75,4.96875,773200,4.96875,4.78125,3.877392530441284
26-08-1994,4.65625,4.8125,1071600,4.875,4.8125,3.902733087539673
29-08-1994,4.625,4.875,1677600,4.875,4.71875,3.826706886291504
30-08-1994,4.6875,4.71875,976800,4.8125,4.8125,3.902733087539673
31-08-1994,4.75,4.8125,1103600,4.90625,4.8125,3.902733087539673
01-09-1994,4.78125,4.78125,967600,4.875,4.84375,3.9280788898468018
02-09-1994,4.84375,4.90625,250400,4.9375,4.9375,4.004105567932129
06-09-1994,4.875,4.90625,397200,5.03125,5.03125,4.080132484436035
07-09-1994,5.0625,5.0625,1347600,5.25,5.1875,4.206844806671143
08-09-1994,5.125,5.125,1925200,5.4375,5.4375,4.4095845222473145
09-09-1994,5.125,5.375,1384800,5.375,5.125,4.156159400939941
12-09-1994,5.125,5.1875,572800,5.21875,5.125,4.156159400939941
13-09-1994,5.125,5.15625,136400,5.1875,5.15625,4.181501388549805
14-09-1994,5.125,5.125,378800,5.25,5.25,4.257532119750977
15-09-1994,5.21875,5.25,1040800,5.3125,5.25,4.257532119750977
16-09-1994,5.25,5.28125,429600,5.375,5.375,4.3588972091674805
19-09-1994,5.25,5.375,374400,5.375,5.25,4.257532119750977
20-09-1994,5.0,5.1875,248400,5.1875,5.125,4.156159400939941
21-09-1994,4.9375,5.125,303200,5.125,5.0,4.05479097366333
22-09-1994,5.0,5.0625,68000,5.0625,5.0,4.05479097366333
23-09-1994,5.0625,5.0625,456000,5.21875,5.1875,4.206844806671143
26-09-1994,5.15625,5.15625,168800,5.25,5.25,4.257532119750977
27-09-1994,5.15625,5.21875,271200,5.21875,5.1875,4.206844806671143
28-09-1994,5.15625,5.1875,45600,5.21875,5.15625,4.181501388549805
29-09-1994,5.125,5.1875,135200,5.1875,5.15625,4.181501388549805
30-09-1994,5.0625,5.1875,63600,5.1875,5.09375,4.1308159828186035
03-10-1994,5.0625,5.09375,100000,5.125,5.0625,4.105474472045898
04-10-1994,4.96875,5.09375,256800,5.09375,4.96875,4.029446125030518
05-10-1994,4.96875,4.96875,100400,5.03125,5.03125,4.080132484436035
06-10-1994,5.03125,5.0625,187200,5.125,5.0625,4.105474472045898
07-10-1994,5.09375,5.09375,220000,5.3125,5.28125,4.289224624633789
10-10-1994,5.28125,5.28125,344000,5.375,5.3125,4.314607620239258
11-10-1994,5.3125,5.3125,328800,5.375,5.3125,4.314607620239258
12-10-1994,5.15625,5.25,155600,5.25,5.15625,4.187705039978027
13-10-1994,5.1875,5.21875,285600,5.28125,5.25,4.263848781585693
14-10-1994,5.1875,5.25,151200,5.25,5.25,4.263848781585693
17-10-1994,5.25,5.3125,88000,5.3125,5.25,4.263848781585693
18-10-1994,5.25,5.25,153200,5.375,5.375,4.3653645515441895
19-10-1994,5.34375,5.34375,236000,5.4375,5.34375,4.339986801147461
20-10-1994,5.21875,5.3125,174000,5.34375,5.25,4.263848781585693
21-10-1994,5.1875,5.1875,66800,5.25,5.21875,4.238465309143066
24-10-1994,5.1875,5.25,72800,5.34375,5.3125,4.314607620239258
25-10-1994,5.1875,5.3125,243200,5.34375,5.25,4.263848781585693
26-10-1994,5.21875,5.25,512800,5.40625,5.40625,4.390743255615234
27-10-1994,5.375,5.375,1548800,5.625,5.53125,4.492267608642578
28-10-1994,5.46875,5.5,638000,5.6875,5.65625,4.593786716461182
31-10-1994,5.5,5.625,102000,5.625,5.53125,4.492267608642578
01-11-1994,5.46875,5.53125,71200,5.5625,5.5625,4.517645835876465
02-11-1994,5.4375,5.53125,349600,5.53125,5.46875,4.4415059089660645
03-11-1994,5.46875,5.5,54000,5.5625,5.53125,4.492267608642578
04-11-1994,5.46875,5.46875,237600,5.53125,5.46875,4.4415059089660645
07-11-1994,5.4375,5.5,145600,5.5,5.4375,4.4161272048950195
08-11-1994,5.375,5.40625,126800,5.4375,5.40625,4.390743255615234
09-11-1994,5.4375,5.4375,328400,5.46875,5.4375,4.4161272048950195
10-11-1994,5.4375,5.4375,60800,5.46875,5.4375,4.4161272048950195
11-11-1994,5.34375,5.4375,80800,5.46875,5.34375,4.339986801147461
14-11-1994,5.21875,5.3125,125600,5.3125,5.25,4.263848781585693
15-11-1994,5.21875,5.25,166400,5.28125,5.28125,4.289224624633789
16-11-1994,5.15625,5.21875,154800,5.25,5.15625,4.187705039978027
17-11-1994,4.90625,5.09375,990400,5.09375,4.96875,4.035424709320068
18-11-1994,4.625,4.90625,1564800,4.90625,4.78125,3.883145332336426
21-11-1994,4.71875,4.8125,789600,4.84375,4.75,3.857764720916748
22-11-1994,4.625,4.6875,559600,4.71875,4.6875,3.807006597518921
23-11-1994,4.5,4.71875,952400,4.71875,4.59375,3.730865716934204
25-11-1994,4.53125,4.5625,45600,4.59375,4.53125,3.6801047325134277
28-11-1994,4.46875,4.59375,1295600,4.59375,4.53125,3.6801047325134277
29-11-1994,4.46875,4.53125,1277200,4.625,4.59375,3.730865716934204
30-11-1994,4.53125,4.625,410400,4.625,4.53125,3.6801047325134277
01-12-1994,4.5,4.53125,507600,4.65625,4.625,3.7562458515167236
02-12-1994,4.625,4.625,588000,4.6875,4.625,3.7562458515167236
05-12-1994,4.375,4.59375,1013600,4.65625,4.375,3.553204298019409
06-12-1994,4.375,4.375,664400,4.4375,4.375,3.553204298019409
07-12-1994,4.34375,4.375,218400,4.5625,4.5625,3.7054860591888428
08-12-1994,4.53125,4.53125,552800,4.8125,4.6875,3.807006597518921
09-12-1994,4.5625,4.625,588400,4.625,4.59375,3.730865716934204
12-12-1994,4.625,4.625,519200,4.6875,4.65625,3.781625986099243
13-12-1994,4.65625,4.65625,408000,4.78125,4.75,3.857764720916748
14-12-1994,4.78125,4.78125,529200,4.96875,4.9375,4.010046482086182
15-12-1994,4.8125,4.96875,116000,4.96875,4.84375,3.9339070320129395
16-12-1994,4.8125,4.84375,312800,4.875,4.84375,3.9339070320129395
19-12-1994,4.75,4.84375,426800,4.84375,4.8125,3.9085233211517334
20-12-1994,4.625,4.75,305200,4.8125,4.65625,3.781625986099243
21-12-1994,4.59375,4.6875,634400,4.6875,4.625,3.7562458515167236
22-12-1994,4.53125,4.65625,284000,4.65625,4.53125,3.6801047325134277
23-12-1994,4.53125,4.5625,29600,4.59375,4.5625,3.7054860591888428
27-12-1994,4.4375,4.59375,209600,4.59375,4.5,3.6547248363494873
28-12-1994,4.5,4.5,228800,4.59375,4.59375,3.730865716934204
29-12-1994,4.65625,4.65625,221200,4.8125,4.71875,3.8323843479156494
30-12-1994,4.6875,4.71875,150400,4.78125,4.6875,3.807006597518921
03-01-1995,4.65625,4.75,129600,4.78125,4.75,3.857764720916748
04-01-1995,4.6875,4.75,68400,4.8125,4.71875,3.8323843479156494
05-01-1995,4.59375,4.65625,260000,4.6875,4.65625,3.781625986099243
06-01-1995,4.5,4.6875,404800,4.6875,4.5625,3.7054860591888428
09-01-1995,4.46875,4.53125,613600,4.5625,4.46875,3.635319471359253
10-01-1995,4.3125,4.4375,289600,4.4375,4.3125,3.508211851119995
11-01-1995,4.3125,4.3125,124800,4.40625,4.40625,3.5844783782958984
12-01-1995,4.3125,4.375,374400,4.4375,4.3125,3.508211851119995
13-01-1995,4.28125,4.3125,66800,4.40625,4.375,3.5590555667877197
16-01-1995,4.28125,4.3125,480800,4.328125,4.3125,3.508211851119995
17-01-1995,4.3125,4.3125,437600,4.4375,4.40625,3.5844783782958984
18-01-1995,4.40625,4.40625,606000,4.59375,4.5625,3.7115867137908936
19-01-1995,4.5,4.5625,248000,4.5625,4.5,3.660743236541748
20-01-1995,4.5,4.53125,76400,4.53125,4.53125,3.686164617538452
23-01-1995,4.375,4.46875,128800,4.5,4.375,3.5590555667877197
24-01-1995,4.375,4.375,345600,4.5625,4.53125,3.686164617538452
25-01-1995,4.46875,4.53125,129600,4.53125,4.5,3.660743236541748
26-01-1995,4.5,4.5,145200,4.625,4.625,3.7624313831329346
27-01-1995,4.5,4.5625,512000,4.59375,4.53125,3.686164617538452
30-01-1995,4.4375,4.53125,193200,4.53125,4.46875,3.635319471359253
31-01-1995,4.4375,4.4375,186400,4.53125,4.4375,3.6098992824554443
01-02-1995,4.4375,4.4375,46000,4.5,4.46875,3.635319471359253
02-02-1995,4.4375,4.46875,41600,4.5,4.46875,3.635319471359253
03-02-1995,4.4375,4.5,243600,4.53125,4.5,3.660743236541748
06-02-1995,4.5625,4.625,651200,4.8125,4.75,3.864117383956909
07-02-1995,4.6875,4.8125,437200,4.8125,4.6875,3.8132758140563965
08-02-1995,4.71875,4.71875,549600,4.8125,4.75,3.864117383956909
09-02-1995,4.6875,4.78125,278800,4.78125,4.6875,3.8132758140563965
10-02-1995,4.6875,4.71875,243600,4.78125,4.78125,3.8895411491394043
13-02-1995,4.8125,4.8125,264800,4.90625,4.84375,3.9403834342956543
14-02-1995,4.75,4.84375,137600,4.84375,4.84375,3.9403834342956543
15-02-1995,4.8125,4.84375,277200,4.96875,4.9375,4.016648292541504
16-02-1995,4.9375,4.9375,477600,5.03125,5.0,4.067491054534912
17-02-1995,5.0,5.0,261200,5.125,5.125,4.1691789627075195
21-02-1995,5.09375,5.125,92400,5.125,5.125,4.1691789627075195
22-02-1995,5.0625,5.09375,214400,5.125,5.09375,4.143757343292236
23-02-1995,5.0625,5.125,348800,5.15625,5.15625,4.194600582122803
24-02-1995,5.09375,5.15625,281200,5.15625,5.125,4.1691789627075195
27-02-1995,5.09375,5.125,381600,5.15625,5.15625,4.194600582122803
28-02-1995,5.15625,5.1875,322400,5.21875,5.21875,4.245444297790527
01-03-1995,5.15625,5.1875,70800,5.1875,5.15625,4.194600582122803
02-03-1995,5.15625,5.15625,218800,5.25,5.25,4.270866394042969
03-03-1995,5.21875,5.25,259600,5.28125,5.25,4.270866394042969
06-03-1995,5.15625,5.25,236400,5.25,5.21875,4.245444297790527
07-03-1995,5.125,5.25,405200,5.25,5.125,4.1691789627075195
08-03-1995,5.125,5.15625,442800,5.28125,5.21875,4.245444297790527
09-03-1995,5.1875,5.25,179600,5.28125,5.28125,4.296289443969727
10-03-1995,5.15625,5.25,170400,5.25,5.15625,4.194600582122803
13-03-1995,5.15625,5.1875,100800,5.21875,5.1875,4.220023155212402
14-03-1995,5.1875,5.1875,101600,5.25,5.25,4.270866394042969
15-03-1995,5.25,5.25,317200,5.34375,5.3125,4.321710109710693
16-03-1995,5.28125,5.28125,635600,5.5,5.4375,4.423400402069092
17-03-1995,5.3125,5.40625,492800,5.5,5.4375,4.423400402069092
20-03-1995,5.28125,5.40625,426800,5.5,5.34375,4.347133159637451
21-03-1995,5.25,5.3125,159600,5.3125,5.25,4.270866394042969
22-03-1995,5.28125,5.3125,349200,5.375,5.3125,4.321710109710693
23-03-1995,5.3125,5.34375,279600,5.4375,5.40625,4.397974491119385
24-03-1995,5.28125,5.40625,696000,5.40625,5.3125,4.321710109710693
27-03-1995,5.3125,5.34375,314400,5.5,5.5,4.4742431640625
28-03-1995,5.5,5.5,268800,5.5625,5.5625,4.525084495544434
29-03-1995,5.5625,5.5625,458000,5.6875,5.625,4.575929164886475
30-03-1995,5.65625,5.65625,414400,5.875,5.875,4.779303073883057
31-03-1995,5.90625,5.90625,1336800,6.21875,6.15625,5.008100986480713
03-04-1995,5.96875,6.15625,1253600,6.15625,5.96875,4.855569839477539
04-04-1995,5.84375,5.96875,666000,5.96875,5.875,4.779303073883057
05-04-1995,5.84375,5.875,1044800,5.96875,5.90625,4.8047261238098145
06-04-1995,5.71875,5.875,704000,5.875,5.71875,4.652191638946533
07-04-1995,5.625,5.6875,227600,5.75,5.625,4.58193826675415
10-04-1995,5.59375,5.59375,525600,5.75,5.75,4.683757305145264
11-04-1995,5.6875,5.78125,668400,5.78125,5.75,4.683757305145264
12-04-1995,5.71875,5.75,110400,5.78125,5.78125,4.7092108726501465
13-04-1995,5.75,5.8125,191600,5.875,5.75,4.683757305145264
17-04-1995,5.75,5.78125,133200,5.8125,5.75,4.683757305145264
18-04-1995,5.5625,5.75,805200,5.75,5.5625,4.531026840209961
19-04-1995,5.53125,5.59375,182400,5.625,5.625,4.58193826675415
20-04-1995,5.625,5.625,356000,5.78125,5.78125,4.7092108726501465
21-04-1995,5.8125,5.8125,1894000,6.1875,6.09375,4.963767051696777
24-04-1995,5.9375,6.125,940800,6.1875,5.9375,4.836489677429199
25-04-1995,5.84375,5.875,103200,5.90625,5.84375,4.760126113891602
26-04-1995,5.71875,5.875,144000,5.875,5.78125,4.7092108726501465
27-04-1995,5.65625,5.78125,390800,5.78125,5.65625,4.60739278793335
28-04-1995,5.6875,5.71875,266400,5.71875,5.71875,4.65830135345459
01-05-1995,5.71875,5.75,529200,5.78125,5.75,4.683757305145264
02-05-1995,5.6875,5.75,406400,5.75,5.75,4.683757305145264
03-05-1995,5.75,5.75,199600,5.8125,5.75,4.683757305145264
04-05-1995,5.6875,5.75,215200,5.75,5.71875,4.65830135345459
05-05-1995,5.65625,5.6875,289200,5.75,5.65625,4.60739278793335
08-05-1995,5.625,5.65625,224000,5.6875,5.65625,4.60739278793335
09-05-1995,5.625,5.65625,509200,5.8125,5.8125,4.734670162200928
10-05-1995,5.78125,5.78125,706400,5.9375,5.9375,4.836489677429199
11-05-1995,5.78125,5.90625,222000,5.90625,5.8125,4.734670162200928
12-05-1995,5.75,5.8125,38800,5.8125,5.78125,4.7092108726501465
15-05-1995,5.78125,5.8125,279600,5.875,5.875,4.785579204559326
16-05-1995,5.84375,5.90625,43200,5.9375,5.84375,4.760126113891602
17-05-1995,5.78125,5.84375,295600,5.84375,5.8125,4.734670162200928
18-05-1995,5.65625,5.8125,107600,5.8125,5.71875,4.65830135345459
19-05-1995,5.71875,5.71875,130800,5.75,5.75,4.683757305145264
22-05-1995,5.6875,5.75,64000,5.75,5.6875,4.632848739624023
23-05-1995,5.71875,5.71875,340800,5.90625,5.875,4.785579204559326
24-05-1995,5.84375,5.875,449200,6.09375,6.09375,4.963767051696777
25-05-1995,6.0,6.03125,798400,6.125,6.0625,4.9383087158203125
26-05-1995,5.9375,6.0625,177600,6.0625,5.96875,4.861946105957031
30-05-1995,5.9375,5.9375,303600,6.03125,6.03125,4.912856101989746
31-05-1995,6.0,6.0625,254800,6.0625,6.0625,4.9383087158203125
01-06-1995,6.03125,6.0625,26000,6.09375,6.03125,4.912856101989746
02-06-1995,5.9375,6.0625,201600,6.09375,5.96875,4.861946105957031
05-06-1995,5.96875,6.0,137600,6.0,6.0,4.887397289276123
06-06-1995,5.875,6.0,53200,6.0,5.90625,4.811035633087158
07-06-1995,5.8125,5.9375,307600,5.9375,5.8125,4.734670162200928
08-06-1995,5.75,5.8125,242000,5.8125,5.78125,4.7092108726501465
09-06-1995,5.75,5.78125,652000,5.8125,5.78125,4.7092108726501465
12-06-1995,5.71875,5.78125,188000,5.78125,5.75,4.683757305145264
13-06-1995,5.6875,5.6875,119200,5.71875,5.71875,4.65830135345459
14-06-1995,5.71875,5.78125,300400,5.78125,5.78125,4.7092108726501465
15-06-1995,5.71875,5.75,186800,5.8125,5.8125,4.734670162200928
16-06-1995,5.6875,5.8125,190000,5.8125,5.6875,4.632848739624023
19-06-1995,5.59375,5.65625,399600,5.71875,5.6875,4.632848739624023
20-06-1995,5.34375,5.71875,788000,5.71875,5.34375,4.352841854095459
21-06-1995,5.1875,5.34375,494400,5.34375,5.21875,4.2510199546813965
22-06-1995,5.0625,5.21875,762800,5.21875,5.15625,4.200108528137207
23-06-1995,5.1875,5.1875,2558400,5.34375,5.3125,4.327384948730469
26-06-1995,5.25,5.28125,352400,5.375,5.34375,4.352841854095459
27-06-1995,5.3125,5.3125,496800,5.4375,5.40625,4.403749942779541
28-06-1995,5.21875,5.375,1011200,5.375,5.25,4.276474475860596
29-06-1995,5.1875,5.25,250400,5.25,5.1875,4.225565433502197
30-06-1995,5.21875,5.21875,653600,5.4375,5.4375,4.429208755493164
03-07-1995,5.34375,5.40625,317600,5.46875,5.46875,4.454662799835205
05-07-1995,5.28125,5.4375,124000,5.4375,5.28125,4.301931381225586
06-07-1995,5.21875,5.25,680800,5.28125,5.25,4.276474475860596
07-07-1995,5.21875,5.25,272400,5.25,5.25,4.276474475860596
10-07-1995,5.125,5.28125,638400,5.3125,5.125,4.174654006958008
11-07-1995,5.0,5.125,582000,5.28125,5.15625,4.200108528137207
12-07-1995,5.1875,5.1875,335600,5.28125,5.25,4.282705307006836
13-07-1995,5.21875,5.375,817600,5.4375,5.21875,4.257213115692139
14-07-1995,5.15625,5.25,286000,5.28125,5.1875,4.2317214012146
17-07-1995,5.15625,5.1875,460400,5.25,5.21875,4.257213115692139
18-07-1995,5.21875,5.21875,77600,5.28125,5.28125,4.308197975158691
19-07-1995,5.1875,5.25,132000,5.28125,5.25,4.282705307006836
20-07-1995,5.25,5.25,379200,5.375,5.28125,4.308197975158691
21-07-1995,5.21875,5.28125,248000,5.375,5.34375,4.359184265136719
24-07-1995,5.3125,5.3125,176400,5.40625,5.375,4.3846755027771
25-07-1995,5.40625,5.40625,344000,5.46875,5.4375,4.435657501220703
26-07-1995,5.34375,5.40625,244000,5.40625,5.34375,4.359184265136719
27-07-1995,5.21875,5.28125,758000,5.375,5.28125,4.308197975158691
28-07-1995,5.25,5.3125,111600,5.375,5.375,4.3846755027771
31-07-1995,5.34375,5.34375,217200,5.4375,5.40625,4.4101667404174805
01-08-1995,5.1875,5.375,532800,5.375,5.21875,4.257213115692139
02-08-1995,5.1875,5.21875,302000,5.25,5.21875,4.257213115692139
03-08-1995,5.125,5.1875,552400,5.34375,5.34375,4.359184265136719
04-08-1995,5.28125,5.34375,558800,5.34375,5.34375,4.359184265136719
07-08-1995,5.34375,5.375,101600,5.40625,5.375,4.3846755027771
08-08-1995,5.34375,5.40625,305200,5.4375,5.34375,4.359184265136719
09-08-1995,5.3125,5.40625,703200,5.40625,5.3125,4.333689212799072
10-08-1995,5.1875,5.3125,166000,5.34375,5.1875,4.2317214012146
11-08-1995,5.15625,5.15625,349600,5.3125,5.3125,4.333689212799072
14-08-1995,5.25,5.34375,134400,5.34375,5.25,4.282705307006836
15-08-1995,5.25,5.3125,108800,5.34375,5.25,4.282705307006836
16-08-1995,5.125,5.21875,242000,5.21875,5.21875,4.257213115692139
17-08-1995,5.1875,5.1875,371600,5.3125,5.28125,4.308197975158691
18-08-1995,5.28125,5.28125,542400,5.5,5.40625,4.4101667404174805
21-08-1995,5.40625,5.46875,575600,5.5,5.40625,4.4101667404174805
22-08-1995,5.4375,5.4375,362400,5.53125,5.53125,4.512134075164795
23-08-1995,5.5625,5.5625,317600,5.71875,5.625,4.588613033294678
24-08-1995,5.46875,5.59375,2007200,5.625,5.5,4.4866461753845215
25-08-1995,5.5,5.5,160000,5.53125,5.5,4.4866461753845215
28-08-1995,5.46875,5.5,280000,5.5625,5.53125,4.512134075164795
29-08-1995,5.5,5.53125,56400,5.5625,5.53125,4.512134075164795
30-08-1995,5.625,5.625,290400,5.65625,5.65625,4.614104747772217
31-08-1995,5.6875,5.6875,116800,5.84375,5.8125,4.7415666580200195
01-09-1995,5.84375,5.84375,431200,5.96875,5.96875,4.869025707244873
05-09-1995,5.90625,5.96875,545200,6.03125,6.03125,4.920011043548584
06-09-1995,5.90625,5.96875,415600,6.0,6.0,4.894518852233887
07-09-1995,5.78125,6.0,284000,6.03125,6.03125,4.920011043548584
08-09-1995,5.9375,6.03125,248000,6.09375,5.9375,4.843534469604492
11-09-1995,5.9375,5.96875,230800,6.03125,6.03125,4.920011043548584
12-09-1995,5.90625,6.0,312400,6.15625,6.15625,5.021981239318848
13-09-1995,6.03125,6.125,547600,6.125,6.0625,4.945503234863281
14-09-1995,5.9375,6.03125,348000,6.09375,6.09375,4.970996856689453
15-09-1995,6.0625,6.0625,221200,6.1875,6.1875,5.0474724769592285
18-09-1995,6.125,6.15625,490000,6.34375,6.21875,5.072965621948242
19-09-1995,6.0,6.15625,504800,6.1875,6.15625,5.021981239318848
20-09-1995,6.0,6.125,284800,6.125,6.0,4.894518852233887
21-09-1995,5.9375,6.0625,451200,6.0625,6.03125,4.920011043548584
22-09-1995,5.78125,6.03125,143600,6.03125,5.875,4.792549133300781
25-09-1995,5.75,5.84375,183200,5.84375,5.78125,4.716073036193848
26-09-1995,5.65625,5.78125,232000,5.78125,5.65625,4.614104747772217
27-09-1995,5.625,5.6875,229200,5.75,5.75,4.6905837059021
28-09-1995,5.625,5.8125,263600,5.96875,5.625,4.588613033294678
29-09-1995,5.4375,5.59375,635600,5.59375,5.4375,4.435657501220703
02-10-1995,5.4375,5.46875,548400,5.6875,5.59375,4.563120365142822
03-10-1995,5.5625,5.5625,304400,5.6875,5.65625,4.614104747772217
04-10-1995,5.5625,5.625,230800,5.65625,5.65625,4.614104747772217
05-10-1995,5.5,5.625,76800,5.625,5.53125,4.512134075164795
06-10-1995,5.5,5.5,259200,5.5625,5.5625,4.53762674331665
09-10-1995,5.5,5.59375,48000,5.59375,5.5,4.4866461753845215
10-10-1995,5.375,5.46875,109600,5.46875,5.375,4.3846755027771
11-10-1995,5.34375,5.375,166000,5.40625,5.34375,4.359184265136719
12-10-1995,5.34375,5.375,620000,5.5625,5.5,4.492951393127441
13-10-1995,5.5,5.5,227200,5.59375,5.53125,4.518477439880371
16-10-1995,5.40625,5.53125,188800,5.53125,5.46875,4.46742057800293
17-10-1995,5.40625,5.4375,398400,5.5,5.5,4.492951393127441
18-10-1995,5.25,5.4375,1966400,5.46875,5.25,4.288724899291992
19-10-1995,5.21875,5.21875,1503600,5.3125,5.21875,4.26319694519043
20-10-1995,5.125,5.25,333600,5.25,5.125,4.186612129211426
23-10-1995,5.0,5.15625,608000,5.15625,5.0,4.084500312805176
24-10-1995,4.90625,5.0,1186800,5.0,4.9375,4.033441543579102
25-10-1995,4.71875,4.9375,658400,4.9375,4.71875,3.854745388031006
26-10-1995,4.6875,4.75,439600,4.8125,4.71875,3.854745388031006
27-10-1995,4.71875,4.71875,352000,4.875,4.875,3.9823853969573975
30-10-1995,4.9375,4.9375,646800,5.0,4.96875,4.058969974517822
31-10-1995,4.96875,5.0,314800,5.03125,5.0,4.084500312805176
01-11-1995,5.0,5.0,390800,5.03125,5.0,4.084500312805176
02-11-1995,4.9375,4.96875,42800,5.0,4.9375,4.033441543579102
03-11-1995,4.875,4.875,165600,4.96875,4.96875,4.058969974517822
06-11-1995,4.90625,4.96875,63600,4.96875,4.90625,4.007915496826172
07-11-1995,4.9375,4.9375,476400,5.03125,5.03125,4.11002779006958
08-11-1995,4.875,4.96875,907200,5.0,5.0,4.084500312805176
09-11-1995,5.03125,5.09375,1176400,5.15625,5.03125,4.11002779006958
10-11-1995,4.90625,5.03125,550000,5.03125,4.90625,4.007915496826172
13-11-1995,4.9375,4.96875,446800,5.09375,5.09375,4.161083221435547
14-11-1995,4.9375,5.03125,1045600,5.0625,4.96875,4.058969974517822
15-11-1995,4.96875,4.96875,228000,5.03125,5.0,4.084500312805176
16-11-1995,5.03125,5.03125,1046400,5.4375,5.375,4.390837669372559
17-11-1995,5.375,5.40625,906800,5.40625,5.40625,4.416365146636963
20-11-1995,5.1875,5.40625,585600,5.40625,5.1875,4.237668991088867
21-11-1995,5.1875,5.21875,363200,5.375,5.34375,4.365310192108154
22-11-1995,5.34375,5.375,432800,5.40625,5.40625,4.416365146636963
24-11-1995,5.3125,5.40625,229200,5.40625,5.3125,4.339778900146484
27-11-1995,5.125,5.21875,851200,5.21875,5.1875,4.237668991088867
28-11-1995,5.1875,5.1875,315200,5.28125,5.25,4.288724899291992
29-11-1995,5.21875,5.28125,28800,5.28125,5.21875,4.26319694519043
30-11-1995,5.1875,5.28125,311200,5.28125,5.25,4.288724899291992
01-12-1995,5.25,5.25,308400,5.34375,5.28125,4.3142523765563965
04-12-1995,5.125,5.3125,1056000,5.3125,5.3125,4.339778900146484
05-12-1995,5.3125,5.3125,461200,5.375,5.375,4.390837669372559
06-12-1995,5.40625,5.40625,685200,5.4375,5.4375,4.441892623901367
07-12-1995,5.4375,5.4375,720400,5.5,5.5,4.492951393127441
08-12-1995,5.4375,5.46875,18838800,5.65625,5.65625,4.620589256286621
11-12-1995,5.71875,5.8125,5631200,5.875,5.875,4.79928731918335
12-12-1995,5.8125,5.875,2874000,5.90625,5.875,4.79928731918335
13-12-1995,5.84375,5.875,3176800,6.09375,6.0,4.901398181915283
14-12-1995,5.90625,6.03125,2280000,6.09375,5.90625,4.8248138427734375
15-12-1995,5.875,6.1875,1721200,6.21875,6.0,4.901398181915283
18-12-1995,5.8125,5.9375,974000,5.96875,5.96875,4.875871181488037
19-12-1995,5.875,5.96875,876000,6.0625,6.0625,4.952455997467041
20-12-1995,6.03125,6.0625,2001200,6.21875,6.03125,4.926926136016846
21-12-1995,6.0,6.03125,1896800,6.125,6.03125,4.926926136016846
22-12-1995,5.9375,6.09375,1115600,6.15625,6.03125,4.926926136016846
26-12-1995,6.03125,6.09375,490800,6.09375,6.03125,4.926926136016846
27-12-1995,5.9375,6.03125,582000,6.03125,5.9375,4.850342273712158
28-12-1995,5.90625,5.90625,1150800,6.15625,6.15625,5.029038429260254
29-12-1995,5.9375,6.1875,677200,6.1875,6.0,4.901398181915283
02-01-1996,6.03125,6.0625,579600,6.125,6.09375,4.977982521057129
03-01-1996,5.875,6.125,1148000,6.125,5.96875,4.875871181488037
04-01-1996,5.9375,5.96875,1644000,6.0625,5.96875,4.875871181488037
05-01-1996,5.9375,5.9375,680800,6.09375,6.0625,4.952455997467041
08-01-1996,6.0625,6.0625,779200,6.125,6.125,5.003510475158691
09-01-1996,5.9375,6.15625,948400,6.15625,6.0,4.901398181915283
10-01-1996,5.84375,6.0,516400,6.03125,5.96875,4.875871181488037
11-01-1996,5.6875,5.8125,1618400,5.8125,5.78125,4.72864294052124
12-01-1996,5.75,5.75,555200,5.8125,5.8125,4.754204750061035
15-01-1996,5.75,5.875,1159200,5.875,5.75,4.703084468841553
16-01-1996,5.71875,5.75,1683200,5.8125,5.75,4.703084468841553
17-01-1996,5.59375,5.75,2281600,5.78125,5.75,4.703084468841553
18-01-1996,5.71875,5.75,504000,5.78125,5.78125,4.72864294052124
19-01-1996,5.75,5.8125,803200,5.84375,5.75,4.703084468841553
22-01-1996,5.78125,5.78125,545600,5.875,5.875,4.805321216583252
23-01-1996,5.78125,5.84375,426400,5.90625,5.78125,4.72864294052124
24-01-1996,5.78125,5.8125,539600,5.96875,5.875,4.805321216583252
25-01-1996,5.875,5.875,693600,5.96875,5.9375,4.856443881988525
26-01-1996,5.875,5.90625,1880000,5.90625,5.875,4.805321216583252
29-01-1996,5.875,5.90625,1636800,6.0,6.0,4.907565116882324
30-01-1996,5.96875,6.0,970800,6.03125,6.03125,4.933123588562012
31-01-1996,5.96875,6.03125,650000,6.125,6.09375,4.984245777130127
01-02-1996,6.125,6.125,2182400,6.3125,6.21875,5.086485862731934
02-02-1996,6.125,6.15625,1204000,6.25,6.15625,5.035365581512451
05-02-1996,6.0625,6.09375,923200,6.15625,6.09375,4.984245777130127
06-02-1996,6.03125,6.09375,938400,6.125,6.03125,4.933123588562012
07-02-1996,6.0625,6.09375,838800,6.15625,6.125,5.009803295135498
08-02-1996,6.125,6.125,705600,6.25,6.1875,5.060925006866455
09-02-1996,6.125,6.1875,1770400,6.28125,6.25,5.112043857574463
12-02-1996,6.15625,6.25,4923200,6.65625,6.53125,5.342089653015137
13-02-1996,6.25,6.59375,3442800,6.59375,6.34375,5.188728332519531
14-02-1996,6.375,6.375,1570000,6.625,6.5625,5.367648124694824
15-02-1996,6.53125,6.53125,1637600,6.9375,6.90625,5.6488118171691895
16-02-1996,6.65625,7.125,2182000,7.125,6.75,5.521011829376221
20-02-1996,6.5625,6.625,421200,6.71875,6.625,5.4187703132629395
21-02-1996,6.53125,6.5625,1553600,6.71875,6.71875,5.495452880859375
22-02-1996,6.59375,6.6875,1300800,6.75,6.6875,5.469889163970947
23-02-1996,6.5625,6.65625,660000,6.75,6.71875,5.495452880859375
26-02-1996,6.5625,6.625,556400,6.65625,6.59375,5.393208980560303
27-02-1996,6.5,6.53125,532800,6.625,6.59375,5.393208980560303
28-02-1996,6.40625,6.59375,2225600,6.71875,6.40625,5.23984956741333
29-02-1996,6.1875,6.4375,956000,6.4375,6.25,5.112043857574463
01-03-1996,6.25,6.25,402800,6.34375,6.25,5.112043857574463
04-03-1996,6.1875,6.25,809200,6.34375,6.3125,5.1631669998168945
05-03-1996,6.15625,6.25,574000,6.25,6.25,5.112043857574463
06-03-1996,6.1875,6.21875,830000,6.40625,6.40625,5.23984956741333
07-03-1996,6.3125,6.375,1132000,6.40625,6.375,5.214287281036377
08-03-1996,6.1875,6.1875,278400,6.28125,6.21875,5.086485862731934
11-03-1996,6.09375,6.1875,1366400,6.1875,6.15625,5.035365581512451
12-03-1996,6.09375,6.125,1108400,6.15625,6.125,5.009803295135498
13-03-1996,6.125,6.125,1038800,6.1875,6.1875,5.060925006866455
14-03-1996,6.25,6.25,2724800,6.40625,6.3125,5.1631669998168945
15-03-1996,6.0,6.25,1051600,6.25,6.0625,4.95868444442749
18-03-1996,6.0625,6.09375,4547200,6.375,6.375,5.214287281036377
19-03-1996,6.34375,6.375,473600,6.4375,6.34375,5.188728332519531
20-03-1996,6.1875,6.375,223600,6.375,6.1875,5.060925006866455
21-03-1996,6.125,6.1875,936800,6.28125,6.125,5.009803295135498
22-03-1996,6.09375,6.15625,1019600,6.1875,6.09375,4.984245777130127
25-03-1996,6.0625,6.0625,907200,6.28125,6.28125,5.137606620788574
26-03-1996,6.25,6.28125,216800,6.3125,6.3125,5.1631669998168945
27-03-1996,6.40625,6.5,1842000,6.59375,6.53125,5.342089653015137
28-03-1996,6.53125,6.53125,1270000,6.65625,6.65625,5.444328308105469
29-03-1996,6.5625,6.59375,1343600,6.625,6.59375,5.393208980560303
01-04-1996,6.5625,6.59375,752800,6.6875,6.6875,5.469889163970947
02-04-1996,6.65625,6.71875,1116400,6.875,6.84375,5.597691535949707
03-04-1996,6.71875,6.78125,1519600,6.96875,6.9375,5.67437219619751
04-04-1996,6.75,6.9375,796800,6.9375,6.875,5.623250484466553
08-04-1996,6.625,6.84375,1262800,6.84375,6.8125,5.5721330642700195
09-04-1996,6.8125,6.8125,923200,6.90625,6.875,5.623250484466553
10-04-1996,6.78125,6.8125,1358000,6.96875,6.9375,5.67437219619751
11-04-1996,6.84375,6.875,932000,6.9375,6.875,5.629338264465332
12-04-1996,6.59375,6.875,1120000,6.875,6.65625,5.450221538543701
15-04-1996,6.5625,6.59375,948000,6.78125,6.75,5.526986122131348
16-04-1996,6.6875,6.78125,846000,6.78125,6.75,5.526986122131348
17-04-1996,6.65625,6.75,1494800,6.75,6.6875,5.475808620452881
18-04-1996,6.5,6.6875,1113200,6.6875,6.53125,5.347870826721191
19-04-1996,6.5,6.5,884400,6.6875,6.65625,5.450221538543701
22-04-1996,6.65625,6.65625,2457600,6.90625,6.8125,5.578164577484131
23-04-1996,6.78125,6.9375,1053200,7.0,6.90625,5.6549248695373535
24-04-1996,6.90625,6.90625,1069200,7.15625,7.03125,5.757278919219971
25-04-1996,6.9375,6.96875,536800,7.0,6.9375,5.68051290512085
26-04-1996,6.78125,6.875,486400,6.9375,6.78125,5.552575588226318
29-04-1996,6.71875,6.71875,705200,6.875,6.78125,5.552575588226318
30-04-1996,6.59375,6.8125,779600,6.875,6.625,5.424638271331787
01-05-1996,6.5,6.625,808400,6.75,6.5,5.3222832679748535
02-05-1996,6.46875,6.5625,373600,6.59375,6.5625,5.3734588623046875
03-05-1996,6.53125,6.625,680000,6.625,6.625,5.424638271331787
06-05-1996,6.5625,6.59375,504400,6.65625,6.5625,5.3734588623046875
07-05-1996,6.125,6.625,1395600,6.65625,6.21875,5.091992378234863
08-05-1996,6.1875,6.25,620400,6.34375,6.25,5.11757755279541
09-05-1996,6.25,6.25,332000,6.375,6.375,5.219932556152344
10-05-1996,6.25,6.375,818400,6.40625,6.3125,5.168755054473877
13-05-1996,6.21875,6.25,796000,6.3125,6.25,5.11757755279541
14-05-1996,6.15625,6.25,1208800,6.28125,6.15625,5.040816783905029
15-05-1996,6.09375,6.1875,2372400,6.3125,6.3125,5.168755054473877
16-05-1996,6.25,6.34375,379600,6.34375,6.28125,5.143167495727539
17-05-1996,6.1875,6.25,1017600,6.28125,6.25,5.11757755279541
20-05-1996,6.25,6.25,425600,6.375,6.34375,5.1943440437316895
21-05-1996,6.3125,6.3125,2660400,6.46875,6.4375,5.2711076736450195
22-05-1996,6.4375,6.4375,552000,6.5,6.5,5.3222832679748535
23-05-1996,6.53125,6.5625,1154800,6.75,6.5625,5.3734588623046875
24-05-1996,6.4375,6.5,1701200,6.53125,6.5,5.3222832679748535
28-05-1996,6.359375,6.53125,554000,6.53125,6.4375,5.2711076736450195
29-05-1996,6.3125,6.40625,613600,6.40625,6.375,5.219932556152344
30-05-1996,6.25,6.375,604000,6.375,6.3125,5.168755054473877
31-05-1996,6.25,6.34375,493200,6.375,6.3125,5.168755054473877
03-06-1996,6.28125,6.3125,211200,6.3125,6.3125,5.168755054473877
04-06-1996,6.375,6.40625,654800,6.46875,6.375,5.219932556152344
05-06-1996,6.40625,6.4375,679600,6.46875,6.4375,5.2711076736450195
06-06-1996,6.25,6.4375,278800,6.4375,6.28125,5.143167495727539
07-06-1996,6.15625,6.21875,702800,6.34375,6.34375,5.1943440437316895
10-06-1996,6.3125,6.34375,241200,6.34375,6.3125,5.168755054473877
11-06-1996,6.28125,6.3125,761600,6.375,6.3125,5.168755054473877
12-06-1996,6.25,6.3125,1385200,6.3125,6.28125,5.143167495727539
13-06-1996,6.09375,6.28125,985600,6.28125,6.1875,5.066403865814209
14-06-1996,6.15625,6.1875,1093200,6.21875,6.15625,5.040816783905029
17-06-1996,6.0625,6.09375,586400,6.125,6.0625,4.964051723480225
18-06-1996,5.96875,6.0,1450000,6.125,5.96875,4.887290954589844
19-06-1996,6.03125,6.03125,1416800,6.15625,6.0625,4.964051723480225
20-06-1996,6.0625,6.09375,1258400,6.125,6.09375,4.989641189575195
21-06-1996,6.0,6.09375,650800,6.09375,6.0,4.912876129150391
24-06-1996,5.96875,6.03125,948000,6.0625,6.0,4.912876129150391
25-06-1996,5.96875,6.03125,2754000,6.25,6.15625,5.040816783905029
26-06-1996,6.21875,6.21875,5256400,6.625,6.625,5.424638271331787
27-06-1996,6.53125,6.59375,4884000,6.75,6.75,5.526986122131348
28-06-1996,6.78125,6.8125,5409200,6.96875,6.96875,5.706101894378662
01-07-1996,6.90625,6.96875,3778800,7.28125,7.28125,5.961982727050781
02-07-1996,7.125,7.15625,2342000,7.25,7.21875,5.9108052253723145
03-07-1996,7.125,7.125,1392000,7.21875,7.21875,5.9108052253723145
05-07-1996,7.125,7.21875,753600,7.3125,7.28125,5.961982727050781
08-07-1996,7.1875,7.25,924800,7.3125,7.25,5.9363932609558105
09-07-1996,7.25,7.25,2440800,7.5625,7.5,6.141098499298096
10-07-1996,7.46875,7.5,3225600,7.65625,7.5625,6.192271709442139
11-07-1996,7.125,7.46875,3954400,7.59375,7.1875,5.891058444976807
12-07-1996,7.125,7.15625,1191200,7.21875,7.15625,5.865445613861084
15-07-1996,7.09375,7.125,1718400,7.34375,7.125,5.839832305908203
16-07-1996,6.5625,7.0625,1854400,7.09375,6.65625,5.45563268661499
17-07-1996,6.6875,6.6875,2270000,6.96875,6.6875,5.481245517730713
18-07-1996,6.65625,6.75,990400,6.8125,6.71875,5.506862163543701
19-07-1996,6.65625,6.6875,1322800,6.71875,6.6875,5.481245517730713
22-07-1996,6.5625,6.6875,1101600,6.6875,6.59375,5.40440559387207
23-07-1996,6.53125,6.625,2303200,6.8125,6.8125,5.583701133728027
24-07-1996,6.625,6.75,327600,6.75,6.625,5.430021286010742
25-07-1996,6.375,6.625,762800,6.78125,6.375,5.225113391876221
26-07-1996,6.40625,6.40625,462800,6.5625,6.53125,5.353179931640625
29-07-1996,6.4375,6.5,676800,6.53125,6.5,5.327567100524902
30-07-1996,6.25,6.46875,1988800,6.53125,6.3125,5.173887252807617
31-07-1996,6.125,6.3125,1733600,6.3125,6.25,5.122660160064697
01-08-1996,6.25,6.25,1422800,6.375,6.3125,5.173887252807617
02-08-1996,6.3125,6.3125,1042800,6.46875,6.46875,5.301952362060547
05-08-1996,6.34375,6.46875,503200,6.59375,6.59375,5.40440559387207
06-08-1996,6.5,6.59375,495200,6.65625,6.65625,5.45563268661499
07-08-1996,6.75,6.75,1542800,6.84375,6.84375,5.60931396484375
08-08-1996,6.75,6.84375,767600,6.875,6.84375,5.60931396484375
09-08-1996,6.71875,6.875,634400,6.875,6.71875,5.506862163543701
12-08-1996,6.625,6.75,167600,6.75,6.625,5.430021286010742
13-08-1996,6.625,6.65625,389600,6.6875,6.625,5.430021286010742
14-08-1996,6.625,6.625,333200,6.65625,6.65625,5.45563268661499
15-08-1996,6.625,6.625,331600,6.75,6.75,5.532473087310791
16-08-1996,6.625,6.6875,329600,6.71875,6.71875,5.506862163543701
19-08-1996,6.625,6.65625,339200,6.78125,6.78125,5.558088302612305
20-08-1996,6.6875,6.8125,928800,6.8125,6.75,5.532473087310791
21-08-1996,6.59375,6.71875,837600,6.71875,6.65625,5.45563268661499
22-08-1996,6.59375,6.65625,433200,6.6875,6.65625,5.45563268661499
23-08-1996,6.5625,6.59375,228800,6.65625,6.625,5.430021286010742
26-08-1996,6.5625,6.625,488000,6.65625,6.65625,5.45563268661499
27-08-1996,6.5,6.625,669600,6.625,6.5,5.327567100524902
28-08-1996,6.46875,6.5,392800,6.5,6.46875,5.301952362060547
29-08-1996,6.4375,6.46875,499200,6.5,6.46875,5.301952362060547
30-08-1996,6.375,6.4375,160800,6.46875,6.46875,5.301952362060547
03-09-1996,6.5,6.5,1298800,6.59375,6.5625,5.378791332244873
04-09-1996,6.40625,6.53125,356400,6.53125,6.46875,5.301952362060547
05-09-1996,6.375,6.4375,382800,6.5,6.4375,5.276341438293457
06-09-1996,6.3125,6.4375,2431600,6.59375,6.46875,5.301952362060547
09-09-1996,6.40625,6.46875,501200,6.53125,6.5,5.327567100524902
10-09-1996,6.46875,6.5,488400,6.53125,6.46875,5.301952362060547
11-09-1996,6.46875,6.46875,1305600,6.65625,6.5625,5.378791332244873
12-09-1996,6.28125,6.53125,1240800,6.53125,6.3125,5.173887252807617
13-09-1996,6.125,6.3125,1250400,6.3125,6.125,5.020206928253174
16-09-1996,6.03125,6.125,1839600,6.125,6.0625,4.968979835510254
17-09-1996,5.71875,5.875,3505600,5.9375,5.875,4.815298557281494
18-09-1996,5.875,5.90625,2286800,6.09375,6.0,4.917752265930176
19-09-1996,5.96875,5.96875,2160800,6.09375,6.03125,4.943365573883057
20-09-1996,6.03125,6.03125,601200,6.09375,6.03125,4.943365573883057
23-09-1996,6.0,6.0625,1021600,6.0625,6.03125,4.943365573883057
24-09-1996,5.84375,6.0,1552000,6.0625,5.90625,4.840912342071533
25-09-1996,5.78125,5.90625,1691200,6.0,6.0,4.917752265930176
26-09-1996,6.03125,6.03125,856400,6.15625,6.125,5.020206928253174
27-09-1996,6.0,6.0625,1036000,6.09375,6.03125,4.943365573883057
30-09-1996,6.0,6.0,1134400,6.21875,6.21875,5.097044467926025
01-10-1996,6.25,6.25,956400,6.3125,6.3125,5.173887252807617
02-10-1996,6.28125,6.3125,774800,6.40625,6.375,5.225113391876221
03-10-1996,6.28125,6.375,691600,6.375,6.28125,5.14827299118042
04-10-1996,6.28125,6.34375,592000,6.40625,6.28125,5.14827299118042
07-10-1996,6.25,6.28125,1552000,6.4375,6.40625,5.250724792480469
08-10-1996,6.34375,6.40625,1220000,6.46875,6.375,5.225113391876221
09-10-1996,6.25,6.375,772800,6.375,6.3125,5.173887252807617
10-10-1996,5.9375,6.21875,2254800,6.21875,6.0,4.92360258102417
11-10-1996,5.9375,6.0,1258800,6.0625,5.9375,4.872317314147949
14-10-1996,5.8125,5.9375,2306000,5.96875,5.84375,4.795384407043457
15-10-1996,5.84375,5.875,1424800,6.0,6.0,4.92360258102417
16-10-1996,5.96875,6.0,1880000,6.09375,6.09375,5.0005340576171875
17-10-1996,6.125,6.15625,1636400,6.25,6.25,5.128754138946533
18-10-1996,6.21875,6.25,1060800,6.40625,6.375,5.23132848739624
21-10-1996,6.25,6.34375,722000,6.375,6.25,5.128754138946533
22-10-1996,6.15625,6.25,1494400,6.3125,6.1875,5.077465057373047
23-10-1996,5.96875,6.15625,2842800,6.15625,6.0,4.92360258102417
24-10-1996,6.0,6.03125,1593200,6.09375,6.0625,4.97489070892334
25-10-1996,6.09375,6.09375,1020000,6.21875,6.21875,5.103107452392578
28-10-1996,6.09375,6.15625,995600,6.1875,6.09375,5.0005340576171875
29-10-1996,6.03125,6.09375,1533600,6.15625,6.15625,5.051822662353516
30-10-1996,6.15625,6.15625,3300400,6.375,6.375,5.23132848739624
31-10-1996,6.375,6.375,1713200,6.53125,6.4375,5.28261661529541
01-11-1996,6.25,6.4375,1226800,6.46875,6.28125,5.154397487640381
04-11-1996,6.1875,6.25,1135200,6.28125,6.1875,5.077465057373047
05-11-1996,6.1875,6.25,730800,6.25,6.21875,5.103107452392578
06-11-1996,6.125,6.21875,395600,6.21875,6.125,5.026177406311035
07-11-1996,6.0,6.0,1647200,6.0625,6.0,4.92360258102417
08-11-1996,6.0,6.0625,1212400,6.15625,6.15625,5.051822662353516
11-11-1996,6.15625,6.1875,1075600,6.28125,6.25,5.128754138946533
12-11-1996,6.25,6.3125,1186400,6.375,6.25,5.128754138946533
13-11-1996,6.25,6.28125,1387200,6.28125,6.28125,5.154397487640381
14-11-1996,6.28125,6.28125,2227200,6.3125,6.3125,5.180041313171387
15-11-1996,6.21875,6.28125,1321600,6.34375,6.25,5.128754138946533
18-11-1996,6.1875,6.25,682000,6.25,6.25,5.128754138946533
19-11-1996,6.21875,6.25,2281600,6.40625,6.40625,5.256972789764404
20-11-1996,6.5625,6.75,3805200,6.78125,6.78125,5.564699649810791
21-11-1996,6.59375,6.78125,1956000,6.78125,6.625,5.436481475830078
22-11-1996,6.625,6.65625,2746800,7.0,6.96875,5.7185587882995605
25-11-1996,6.875,7.03125,1406000,7.09375,7.03125,5.769848346710205
